Wavelength	Comparation
6.200000e+00	0.262681	0.262120	-0.179426
6.196902e+00	0.261879	0.261324	-0.178314
6.193806e+00	0.261041	0.260491	-0.177072
6.190714e+00	0.260166	0.259622	-0.175694
6.187625e+00	0.259255	0.258717	-0.174174
6.184539e+00	0.258308	0.257777	-0.172507
6.181456e+00	0.257325	0.256801	-0.170685
6.178376e+00	0.256307	0.255791	-0.168701
6.175299e+00	0.255253	0.254745	-0.166548
6.172225e+00	0.254165	0.253666	-0.164216
6.169154e+00	0.253042	0.252553	-0.161698
6.166087e+00	0.251885	0.251406	-0.158984
6.163022e+00	0.250694	0.250225	-0.156063
6.159960e+00	0.249470	0.249012	-0.152927
6.156902e+00	0.248213	0.247767	-0.149563
6.153846e+00	0.246923	0.246489	-0.145960
6.150794e+00	0.245600	0.245180	-0.142105
6.147744e+00	0.244246	0.243840	-0.137985
6.144698e+00	0.242860	0.242470	-0.133586
6.141654e+00	0.241444	0.241069	-0.128892
6.138614e+00	0.239997	0.239638	-0.123887
6.135576e+00	0.238520	0.238178	-0.118553
6.132542e+00	0.237014	0.236690	-0.112873
6.129511e+00	0.235478	0.235173	-0.106826
6.126482e+00	0.233914	0.233629	-0.100393
6.123457e+00	0.232323	0.232059	-0.093550
6.120434e+00	0.230704	0.230461	-0.086274
6.117415e+00	0.229058	0.228839	-0.078540
6.114398e+00	0.227386	0.227191	-0.070321
6.111385e+00	0.225689	0.225519	-0.061587
6.108374e+00	0.223966	0.223823	-0.052307
6.105367e+00	0.222219	0.222104	-0.042449
6.102362e+00	0.220449	0.220362	-0.031978
6.099361e+00	0.218655	0.218599	-0.020858
6.096362e+00	0.216840	0.216816	-0.009048
6.093366e+00	0.215002	0.215012	0.003494
6.090373e+00	0.213144	0.213189	0.016812
6.087383e+00	0.211266	0.211347	0.030953
6.084396e+00	0.209368	0.209487	0.045966
6.081412e+00	0.207452	0.207611	0.061905
6.078431e+00	0.205517	0.205719	0.078823
6.075453e+00	0.203566	0.203812	0.096778
6.072478e+00	0.201598	0.201890	0.115827
6.069506e+00	0.199615	0.199955	0.136031
6.066536e+00	0.197618	0.198008	0.157453
6.063570e+00	0.195606	0.196049	0.180152
6.060606e+00	0.193582	0.194080	0.204189
6.057645e+00	0.191546	0.192101	0.229621
6.054688e+00	0.189498	0.190114	0.256502
6.051733e+00	0.187441	0.188118	0.284879
6.048780e+00	0.185374	0.186116	0.314788
6.045831e+00	0.183299	0.184109	0.346254
6.042885e+00	0.181217	0.182096	0.379286
6.039942e+00	0.179128	0.180079	0.413868
6.037001e+00	0.177034	0.178058	0.449963
6.034063e+00	0.174936	0.176035	0.487497
6.031128e+00	0.172834	0.174010	0.526365
6.028196e+00	0.170730	0.171984	0.566416
6.025267e+00	0.168625	0.169957	0.607453
6.022341e+00	0.166519	0.167930	0.649234
6.019417e+00	0.164415	0.165902	0.691464
6.016497e+00	0.162312	0.163876	0.733802
6.013579e+00	0.160212	0.161849	0.775867
6.010664e+00	0.158116	0.159824	0.817241
6.007752e+00	0.156026	0.157800	0.857494
6.004843e+00	0.153941	0.155777	0.896189
6.001936e+00	0.151864	0.153756	0.932905
5.999032e+00	0.149796	0.151738	0.967250
5.996132e+00	0.147737	0.149722	0.998880
5.993233e+00	0.145689	0.147710	1.027519
5.990338e+00	0.143652	0.145702	1.052958
5.987446e+00	0.141629	0.143700	1.075064
5.984556e+00	0.139620	0.141705	1.093773
5.981669e+00	0.137626	0.139719	1.109094
5.978785e+00	0.135649	0.137742	1.121102
5.975904e+00	0.133689	0.135777	1.129916
5.973025e+00	0.131748	0.133824	1.135693
5.970149e+00	0.129827	0.131886	1.138616
5.967276e+00	0.127926	0.129964	1.138882
5.964406e+00	0.126048	0.128060	1.136696
5.961538e+00	0.124193	0.126176	1.132264
5.958674e+00	0.122362	0.124313	1.125780
5.955812e+00	0.120556	0.122473	1.117423
5.952952e+00	0.118777	0.120657	1.107371
5.950096e+00	0.117026	0.118866	1.095784
5.947242e+00	0.115303	0.117103	1.082804
5.944391e+00	0.113610	0.115367	1.068558
5.941543e+00	0.111947	0.113662	1.053151
5.938697e+00	0.110317	0.111987	1.036691
5.935854e+00	0.108719	0.110345	1.019267
5.933014e+00	0.107155	0.108736	1.000956
5.930177e+00	0.105625	0.107161	0.981821
5.927342e+00	0.104132	0.105622	0.961919
5.924510e+00	0.102675	0.104119	0.941307
5.921681e+00	0.101256	0.102654	0.920031
5.918854e+00	0.099875	0.101227	0.898133
5.916031e+00	0.098533	0.099839	0.875646
5.913209e+00	0.097231	0.098492	0.852600
5.910391e+00	0.095971	0.097186	0.829033
5.907575e+00	0.094752	0.095922	0.804974
5.904762e+00	0.093576	0.094700	0.780451
5.901951e+00	0.092443	0.093523	0.755484
5.899144e+00	0.091354	0.092390	0.730103
5.896339e+00	0.090309	0.091301	0.704337
5.893536e+00	0.089310	0.090258	0.678214
5.890736e+00	0.088357	0.089261	0.651760
5.887939e+00	0.087450	0.088312	0.625000
5.885145e+00	0.086590	0.087409	0.597965
5.882353e+00	0.085778	0.086555	0.570686
5.879564e+00	0.085013	0.085748	0.543195
5.876777e+00	0.084296	0.084991	0.515524
5.873993e+00	0.083629	0.084282	0.487702
5.871212e+00	0.083011	0.083624	0.459767
5.868434e+00	0.082441	0.083015	0.431753
5.865658e+00	0.081922	0.082456	0.403698
5.862884e+00	0.081452	0.081947	0.375637
5.860113e+00	0.081033	0.081490	0.347605
5.857345e+00	0.080665	0.081083	0.319643
5.854580e+00	0.080346	0.080727	0.291791
5.851817e+00	0.080078	0.080422	0.264087
5.849057e+00	0.079861	0.080168	0.236570
5.846299e+00	0.079694	0.079966	0.209278
5.843544e+00	0.079578	0.079814	0.182249
5.840791e+00	0.079512	0.079714	0.155522
5.838041e+00	0.079497	0.079664	0.129134
5.835294e+00	0.079532	0.079665	0.103119
5.832549e+00	0.079617	0.079717	0.077514
5.829807e+00	0.079752	0.079820	0.052353
5.827068e+00	0.079937	0.079973	0.027666
5.824331e+00	0.080171	0.080175	0.003486
5.821596e+00	0.080454	0.080427	-0.020159
5.818864e+00	0.080786	0.080730	-0.043240
5.816135e+00	0.081167	0.081080	-0.065734
5.813408e+00	0.081595	0.081479	-0.087618
5.810684e+00	0.082070	0.081927	-0.108872
5.807963e+00	0.082593	0.082421	-0.129476
5.805243e+00	0.083162	0.082964	-0.149411
5.802527e+00	0.083778	0.083552	-0.168666
5.799813e+00	0.084438	0.084187	-0.187231
5.797101e+00	0.085143	0.084866	-0.205095
5.794393e+00	0.085893	0.085591	-0.222248
5.791686e+00	0.086686	0.086360	-0.238686
5.788982e+00	0.087521	0.087172	-0.254407
5.786281e+00	0.088399	0.088026	-0.269412
5.783582e+00	0.089318	0.088923	-0.283701
5.780886e+00	0.090277	0.089861	-0.297271
5.778192e+00	0.091277	0.090840	-0.310129
5.775501e+00	0.092316	0.091858	-0.322284
5.772812e+00	0.093393	0.092915	-0.333746
5.770126e+00	0.094507	0.094010	-0.344523
5.767442e+00	0.095658	0.095143	-0.354621
5.764761e+00	0.096845	0.096312	-0.364054
5.762082e+00	0.098067	0.097516	-0.372839
5.759405e+00	0.099322	0.098754	-0.380989
5.756732e+00	0.100610	0.100026	-0.388520
5.754060e+00	0.101931	0.101332	-0.395436
5.751391e+00	0.103284	0.102669	-0.401761
5.748725e+00	0.104667	0.104038	-0.407515
5.746061e+00	0.106078	0.105436	-0.412716
5.743400e+00	0.107519	0.106862	-0.417381
5.740741e+00	0.108987	0.108318	-0.421519
5.738084e+00	0.110481	0.109800	-0.425155
5.735430e+00	0.112001	0.111309	-0.428310
5.732779e+00	0.113546	0.112842	-0.431002
5.730129e+00	0.115114	0.114400	-0.433250
5.727483e+00	0.116705	0.115982	-0.435060
5.724838e+00	0.118318	0.117585	-0.436459
5.722197e+00	0.119952	0.119210	-0.437467
5.719557e+00	0.121606	0.120856	-0.438103
5.716920e+00	0.123278	0.122520	-0.438384
5.714286e+00	0.124968	0.124203	-0.438315
5.711654e+00	0.126676	0.125904	-0.437921
5.709024e+00	0.128399	0.127621	-0.437221
5.706397e+00	0.130138	0.129354	-0.436233
5.703772e+00	0.131890	0.131101	-0.434972
5.701149e+00	0.133656	0.132862	-0.433439
5.698529e+00	0.135434	0.134635	-0.431657
5.695912e+00	0.137223	0.136421	-0.429647
5.693297e+00	0.139023	0.138217	-0.427420
5.690684e+00	0.140833	0.140023	-0.424991
5.688073e+00	0.142651	0.141839	-0.422360
5.685465e+00	0.144477	0.143662	-0.419547
5.682860e+00	0.146309	0.145493	-0.416569
5.680257e+00	0.148148	0.147331	-0.413436
5.677656e+00	0.149992	0.149173	-0.410160
5.675057e+00	0.151840	0.151021	-0.406735
5.672461e+00	0.153692	0.152872	-0.403181
5.669867e+00	0.155546	0.154727	-0.399515
5.667276e+00	0.157403	0.156584	-0.395744
5.664687e+00	0.159260	0.158442	-0.391878
5.662100e+00	0.161118	0.160301	-0.387912
5.659516e+00	0.162975	0.162159	-0.383861
5.656934e+00	0.164831	0.164017	-0.379739
5.654355e+00	0.166685	0.165873	-0.375553
5.651778e+00	0.168537	0.167727	-0.371309
5.649203e+00	0.170384	0.169577	-0.367001
5.646630e+00	0.172228	0.171423	-0.362642
5.644060e+00	0.174066	0.173265	-0.358243
5.641492e+00	0.175900	0.175102	-0.353812
5.638927e+00	0.177728	0.176934	-0.349352
5.636364e+00	0.179548	0.178758	-0.344857
5.633803e+00	0.181946	0.181153	-0.342109
5.631244e+00	0.184373	0.183580	-0.339187
5.628688e+00	0.186830	0.186035	-0.336100
5.626134e+00	0.189314	0.188518	-0.332856
5.623583e+00	0.191822	0.191027	-0.329454
5.621034e+00	0.194354	0.193559	-0.325904
5.618487e+00	0.196910	0.196115	-0.322225
5.615942e+00	0.199489	0.198696	-0.318423
5.613400e+00	0.202092	0.201301	-0.314508
5.610860e+00	0.204717	0.203927	-0.310477
5.608322e+00	0.207360	0.206573	-0.306335
5.605787e+00	0.210024	0.209240	-0.302102
5.603254e+00	0.212708	0.211927	-0.297783
5.600723e+00	0.215409	0.214632	-0.293387
5.598194e+00	0.218126	0.217352	-0.288912
5.595668e+00	0.220853	0.220084	-0.284361
5.593144e+00	0.223594	0.222830	-0.279751
5.590622e+00	0.226348	0.225589	-0.275087
5.588103e+00	0.229115	0.228362	-0.270372
5.585586e+00	0.231891	0.231144	-0.265608
5.583071e+00	0.234670	0.233929	-0.260791
5.580558e+00	0.237458	0.236723	-0.255941
5.578048e+00	0.240251	0.239524	-0.251061
5.575540e+00	0.243051	0.242330	-0.246156
5.573034e+00	0.245853	0.245140	-0.241230
5.570530e+00	0.248647	0.247943	-0.236275
5.568029e+00	0.251443	0.250746	-0.231308
5.565530e+00	0.254236	0.253548	-0.226333
5.563033e+00	0.257023	0.256344	-0.221348
5.560538e+00	0.259802	0.259132	-0.216359
5.558046e+00	0.262558	0.261898	-0.211355
5.555556e+00	0.265302	0.264652	-0.206354
5.553068e+00	0.268032	0.267393	-0.201359
5.550582e+00	0.270748	0.270118	-0.196374
5.548098e+00	0.273446	0.272827	-0.191401
5.545617e+00	0.276113	0.275505	-0.186434
5.543138e+00	0.278757	0.278161	-0.181483
5.540661e+00	0.281376	0.280791	-0.176550
5.538187e+00	0.283964	0.283391	-0.171635
5.535714e+00	0.286518	0.285957	-0.166739
5.533244e+00	0.289025	0.288477	-0.161859
5.530776e+00	0.291489	0.290953	-0.157000
5.528310e+00	0.293914	0.293391	-0.152167
5.525847e+00	0.296297	0.295787	-0.147361
5.523385e+00	0.298637	0.298140	-0.142584
5.520926e+00	0.300924	0.300440	-0.137834
5.518469e+00	0.303155	0.302685	-0.133110
5.516014e+00	0.305339	0.304883	-0.128417
5.513562e+00	0.307475	0.307032	-0.123750
5.511111e+00	0.309561	0.309133	-0.119110
5.508663e+00	0.311589	0.311175	-0.114494
5.506217e+00	0.313552	0.313153	-0.109901
5.503773e+00	0.315460	0.315075	-0.105337
5.501331e+00	0.317311	0.316941	-0.100800
5.498891e+00	0.319104	0.318749	-0.096290
5.496454e+00	0.320834	0.320494	-0.091807
5.494019e+00	0.322488	0.322162	-0.087346
5.491585e+00	0.324080	0.323770	-0.082912
5.489154e+00	0.325618	0.325323	-0.078503
5.486726e+00	0.327099	0.326820	-0.074120
5.484299e+00	0.328522	0.328258	-0.069761
5.481874e+00	0.329870	0.329622	-0.065421
5.479452e+00	0.331156	0.330924	-0.061103
5.477032e+00	0.332381	0.332163	-0.056806
5.474614e+00	0.333542	0.333340	-0.052528
5.472198e+00	0.334638	0.334452	-0.048268
5.469784e+00	0.335658	0.335489	-0.044023
5.467372e+00	0.336582	0.336428	-0.039794
5.464963e+00	0.337358	0.337220	-0.035585
5.462555e+00	0.337986	0.337864	-0.031394
5.460150e+00	0.338465	0.338359	-0.027220
5.457746e+00	0.338789	0.338699	-0.023060
5.455345e+00	0.338957	0.338884	-0.018913
5.452946e+00	0.338977	0.338919	-0.014778
5.450549e+00	0.338847	0.338805	-0.010654
5.448155e+00	0.338568	0.338543	-0.006539
5.445762e+00	0.338141	0.338132	-0.002432
5.443371e+00	0.337584	0.337590	0.001651
5.440983e+00	0.336944	0.336966	0.005676
5.438596e+00	0.336223	0.336260	0.009644
5.436212e+00	0.335424	0.335476	0.013557
5.433830e+00	0.334549	0.334616	0.017416
5.431450e+00	0.333603	0.333684	0.021222
5.429072e+00	0.332586	0.332682	0.024976
5.426696e+00	0.331502	0.331612	0.028680
5.424322e+00	0.330355	0.330478	0.032334
5.421950e+00	0.329145	0.329281	0.035938
5.419580e+00	0.327887	0.328037	0.039501
5.417213e+00	0.326592	0.326754	0.043041
5.414847e+00	0.325260	0.325435	0.046560
5.412484e+00	0.323891	0.324078	0.050058
5.410122e+00	0.322487	0.322686	0.053535
5.407763e+00	0.321054	0.321266	0.056992
5.405405e+00	0.319595	0.319819	0.060428
5.403050e+00	0.318104	0.318339	0.063845
5.400697e+00	0.316581	0.316827	0.067245
5.398346e+00	0.315027	0.315285	0.070626
5.395997e+00	0.313447	0.313716	0.073985
5.393649e+00	0.311850	0.312130	0.077308
5.391304e+00	0.310224	0.310515	0.080598
5.388961e+00	0.308572	0.308873	0.083855
5.386620e+00	0.306894	0.307205	0.087080
5.384281e+00	0.305193	0.305514	0.090271
5.381944e+00	0.303493	0.303823	0.093424
5.379610e+00	0.301774	0.302113	0.096543
5.377277e+00	0.300035	0.300384	0.099627
5.374946e+00	0.298279	0.298637	0.102678
5.372617e+00	0.296506	0.296872	0.105700
5.370290e+00	0.294733	0.295108	0.108708
5.367965e+00	0.292953	0.293336	0.111700
5.365643e+00	0.291156	0.291548	0.114681
5.363322e+00	0.289342	0.289742	0.117649
5.361003e+00	0.287513	0.287920	0.120604
5.358686e+00	0.285677	0.286092	0.123545
5.356371e+00	0.283851	0.284273	0.126469
5.354059e+00	0.282010	0.282440	0.129381
5.351748e+00	0.280155	0.280592	0.132279
5.349439e+00	0.278288	0.278732	0.135164
5.347132e+00	0.276407	0.276858	0.138036
5.344828e+00	0.274550	0.275007	0.140892
5.342525e+00	0.272682	0.273146	0.143734
5.340224e+00	0.270803	0.271274	0.146563
5.337925e+00	0.268913	0.269390	0.149378
5.335628e+00	0.267013	0.267496	0.152179
5.333333e+00	0.265128	0.265617	0.154965
5.331040e+00	0.263250	0.263744	0.157736
5.328749e+00	0.261362	0.261862	0.160493
5.326460e+00	0.259465	0.259970	0.163236
5.324173e+00	0.257556	0.258067	0.165969
5.321888e+00	0.255648	0.256164	0.168692
5.319605e+00	0.253759	0.254280	0.171408
5.317324e+00	0.251860	0.252386	0.174113
5.315045e+00	0.249952	0.250483	0.176808
5.312768e+00	0.248034	0.248570	0.179491
5.310493e+00	0.246108	0.246648	0.182161
5.308219e+00	0.244209	0.244753	0.184827
5.305948e+00	0.242306	0.242855	0.187482
5.303678e+00	0.240396	0.240948	0.190124
5.301411e+00	0.238477	0.239034	0.192754
5.299145e+00	0.236552	0.237112	0.195370
5.296882e+00	0.234639	0.235203	0.197977
5.294620e+00	0.232738	0.233306	0.200579
5.292360e+00	0.230831	0.231402	0.203166
5.290102e+00	0.228917	0.229492	0.205738
5.287846e+00	0.226999	0.227576	0.208294
5.285592e+00	0.225078	0.225659	0.210837
5.283340e+00	0.223186	0.223769	0.213381
5.281090e+00	0.221288	0.221875	0.215909
5.278842e+00	0.219386	0.219975	0.218420
5.276596e+00	0.217480	0.218072	0.220913
5.274351e+00	0.215570	0.216164	0.223388
5.272109e+00	0.213679	0.214276	0.225862
5.269868e+00	0.211795	0.212394	0.228325
5.267630e+00	0.209908	0.210508	0.230770
5.265393e+00	0.208017	0.208620	0.233195
5.263158e+00	0.206125	0.206729	0.235598
5.260925e+00	0.204238	0.204844	0.237988
5.258694e+00	0.202369	0.202977	0.240381
5.256465e+00	0.200499	0.201108	0.242751
5.254237e+00	0.198627	0.199237	0.245099
5.252012e+00	0.196754	0.197365	0.247424
5.249788e+00	0.194880	0.195493	0.249723
5.247567e+00	0.193027	0.193640	0.252029
5.245347e+00	0.191176	0.191790	0.254317
5.243129e+00	0.189325	0.189940	0.256580
5.240913e+00	0.187474	0.188090	0.258815
5.238699e+00	0.185624	0.186240	0.261023
5.236486e+00	0.183782	0.184398	0.263217
5.234276e+00	0.181953	0.182569	0.265409
5.232068e+00	0.180124	0.180741	0.267571
5.229861e+00	0.178297	0.178913	0.269703
5.227656e+00	0.176471	0.177088	0.271803
5.225453e+00	0.174648	0.175264	0.273869
5.223252e+00	0.172841	0.173456	0.275943
5.221053e+00	0.171037	0.171652	0.277988
5.218855e+00	0.169235	0.169850	0.279997
5.216660e+00	0.167437	0.168050	0.281969
5.214466e+00	0.165641	0.166255	0.283903
5.212274e+00	0.163855	0.164467	0.285819
5.210084e+00	0.162078	0.162689	0.287720
5.207896e+00	0.160304	0.160914	0.289580
5.205709e+00	0.158535	0.159144	0.291398
5.203525e+00	0.156771	0.157378	0.293172
5.201342e+00	0.155012	0.155618	0.294900
5.199161e+00	0.153265	0.153869	0.296626
5.196982e+00	0.151524	0.152126	0.298306
5.194805e+00	0.149788	0.150388	0.299937
5.192630e+00	0.148059	0.148657	0.301517
5.190456e+00	0.146336	0.146932	0.303045
5.188285e+00	0.144621	0.145215	0.304537
5.186115e+00	0.142916	0.143508	0.305995
5.183946e+00	0.141218	0.141807	0.307397
5.181780e+00	0.139528	0.140114	0.308740
5.179616e+00	0.137846	0.138429	0.310022
5.177453e+00	0.136172	0.136753	0.311240
5.175292e+00	0.134509	0.135086	0.312427
5.173133e+00	0.132855	0.133429	0.313548
5.170976e+00	0.131209	0.131780	0.314600
5.168820e+00	0.129574	0.130142	0.315582
5.166667e+00	0.127949	0.128513	0.316491
5.164515e+00	0.126334	0.126894	0.317336
5.162365e+00	0.124730	0.125287	0.318117
5.160216e+00	0.123137	0.123690	0.318819
5.158070e+00	0.121556	0.122105	0.319440
5.155925e+00	0.119986	0.120531	0.319977
5.153782e+00	0.118428	0.118969	0.320427
5.151641e+00	0.116883	0.117419	0.320800
5.149502e+00	0.115350	0.115882	0.321084
5.147364e+00	0.113831	0.114358	0.321275
5.145228e+00	0.112325	0.112847	0.321369
5.143094e+00	0.110833	0.111351	0.321365
5.140962e+00	0.109355	0.109868	0.321260
5.138831e+00	0.107892	0.108399	0.321052
5.136703e+00	0.106443	0.106946	0.320738
5.134576e+00	0.105010	0.105507	0.320315
5.132450e+00	0.103592	0.104084	0.319782
5.130327e+00	0.102190	0.102677	0.319136
5.128205e+00	0.100805	0.101286	0.318363
5.126085e+00	0.099437	0.099912	0.317470
5.123967e+00	0.098086	0.098555	0.316457
5.121850e+00	0.096752	0.097216	0.315320
5.119736e+00	0.095436	0.095893	0.314059
5.117623e+00	0.094138	0.094589	0.312664
5.115512e+00	0.092859	0.093304	0.311119
5.113402e+00	0.091600	0.092038	0.309443
5.111294e+00	0.090359	0.090791	0.307633
5.109188e+00	0.089137	0.089563	0.305688
5.107084e+00	0.087934	0.088354	0.303606
5.104981e+00	0.086754	0.087167	0.301361
5.102881e+00	0.085595	0.086001	0.298965
5.100782e+00	0.084456	0.084855	0.296427
5.098684e+00	0.083337	0.083730	0.293747
5.096589e+00	0.082239	0.082625	0.290925
5.094495e+00	0.081163	0.081541	0.287955
5.092402e+00	0.080113	0.080484	0.284797
5.090312e+00	0.079084	0.079448	0.281495
5.088223e+00	0.078077	0.078433	0.278048
5.086136e+00	0.077091	0.077441	0.274456
5.084051e+00	0.076128	0.076470	0.270721
5.081967e+00	0.075190	0.075525	0.266819
5.079885e+00	0.074279	0.074605	0.262746
5.077805e+00	0.073389	0.073709	0.258532
5.075727e+00	0.072523	0.072835	0.254179
5.073650e+00	0.071680	0.071984	0.249688
5.071575e+00	0.070859	0.071156	0.245060
5.069501e+00	0.070069	0.070358	0.240254
5.067430e+00	0.069303	0.069584	0.235308
5.065359e+00	0.068561	0.068834	0.230235
5.063291e+00	0.067842	0.068108	0.225037
5.061224e+00	0.067147	0.067404	0.219717
5.059160e+00	0.066477	0.066727	0.214270
5.057096e+00	0.065838	0.066080	0.208668
5.055035e+00	0.065223	0.065457	0.202957
5.052975e+00	0.064632	0.064858	0.197143
5.050916e+00	0.064064	0.064283	0.191230
5.048860e+00	0.063521	0.063731	0.185223
5.046805e+00	0.063006	0.063209	0.179101
5.044752e+00	0.062520	0.062715	0.172876
5.042700e+00	0.062057	0.062244	0.166574
5.040650e+00	0.061619	0.061798	0.160203
5.038602e+00	0.061203	0.061375	0.153766
5.036556e+00	0.060812	0.060975	0.147271
5.034511e+00	0.060453	0.060608	0.140691
5.032468e+00	0.060118	0.060266	0.134063
5.030426e+00	0.059807	0.059947	0.127398
5.028386e+00	0.059520	0.059652	0.120703
5.026348e+00	0.059255	0.059379	0.113983
5.024311e+00	0.059015	0.059132	0.107239
5.022276e+00	0.058806	0.058915	0.100465
5.020243e+00	0.058620	0.058722	0.093690
5.018211e+00	0.058457	0.058551	0.086919
5.016181e+00	0.058315	0.058402	0.080161
5.014153e+00	0.058196	0.058275	0.073420
5.012126e+00	0.058104	0.058176	0.066695
5.010101e+00	0.058038	0.058103	0.059996
5.008078e+00	0.057994	0.058052	0.053336
5.006056e+00	0.057971	0.058022	0.046723
5.004036e+00	0.057969	0.058013	0.040160
5.002017e+00	0.057988	0.058025	0.033654
5.000000e+00	0.058036	0.058065	0.027207
4.997985e+00	0.058105	0.058128	0.020830
4.995971e+00	0.058195	0.058211	0.014528
4.993959e+00	0.058305	0.058314	0.008307
4.991948e+00	0.058434	0.058436	0.002171
4.989940e+00	0.058583	0.058579	-0.003876
4.987932e+00	0.058759	0.058748	-0.009825
4.985927e+00	0.058954	0.058937	-0.015674
4.983923e+00	0.059167	0.059144	-0.021420
4.981920e+00	0.059399	0.059369	-0.027059
4.979920e+00	0.059648	0.059612	-0.032588
4.977921e+00	0.059917	0.059875	-0.038001
4.975923e+00	0.060209	0.060161	-0.043291
4.973927e+00	0.060518	0.060464	-0.048462
