Energy	Dialectric_function
-2.000000e+01	0.003947
-1.995996e+01	0.003959
-1.991992e+01	0.003970
-1.987988e+01	0.003982
-1.983984e+01	0.003994
-1.979980e+01	0.004007
-1.975976e+01	0.004019
-1.971972e+01	0.004031
-1.967968e+01	0.004043
-1.963964e+01	0.004056
-1.959960e+01	0.004068
-1.955956e+01	0.004080
-1.951952e+01	0.004093
-1.947948e+01	0.004106
-1.943944e+01	0.004118
-1.939940e+01	0.004131
-1.935936e+01	0.004144
-1.931932e+01	0.004157
-1.927928e+01	0.004170
-1.923924e+01	0.004183
-1.919920e+01	0.004196
-1.915916e+01	0.004209
-1.911912e+01	0.004222
-1.907908e+01	0.004235
-1.903904e+01	0.004249
-1.899900e+01	0.004262
-1.895896e+01	0.004275
-1.891892e+01	0.004289
-1.887888e+01	0.004303
-1.883884e+01	0.004316
-1.879880e+01	0.004330
-1.875876e+01	0.004344
-1.871872e+01	0.004358
-1.867868e+01	0.004372
-1.863864e+01	0.004386
-1.859860e+01	0.004400
-1.855856e+01	0.004414
-1.851852e+01	0.004428
-1.847848e+01	0.004443
-1.843844e+01	0.004457
-1.839840e+01	0.004472
-1.835836e+01	0.004486
-1.831832e+01	0.004501
-1.827828e+01	0.004516
-1.823824e+01	0.004531
-1.819820e+01	0.004546
-1.815816e+01	0.004561
-1.811812e+01	0.004576
-1.807808e+01	0.004591
-1.803804e+01	0.004606
-1.799800e+01	0.004621
-1.795796e+01	0.004637
-1.791792e+01	0.004652
-1.787788e+01	0.004668
-1.783784e+01	0.004684
-1.779780e+01	0.004699
-1.775776e+01	0.004715
-1.771772e+01	0.004731
-1.767768e+01	0.004747
-1.763764e+01	0.004763
-1.759760e+01	0.004780
-1.755756e+01	0.004796
-1.751752e+01	0.004812
-1.747748e+01	0.004829
-1.743744e+01	0.004846
-1.739740e+01	0.004862
-1.735736e+01	0.004879
-1.731732e+01	0.004896
-1.727728e+01	0.004913
-1.723724e+01	0.004930
-1.719720e+01	0.004947
-1.715716e+01	0.004964
-1.711712e+01	0.004982
-1.707708e+01	0.004999
-1.703704e+01	0.005017
-1.699700e+01	0.005035
-1.695696e+01	0.005052
-1.691692e+01	0.005070
-1.687688e+01	0.005088
-1.683684e+01	0.005106
-1.679680e+01	0.005125
-1.675676e+01	0.005143
-1.671672e+01	0.005161
-1.667668e+01	0.005180
-1.663664e+01	0.005198
-1.659660e+01	0.005217
-1.655656e+01	0.005236
-1.651652e+01	0.005255
-1.647648e+01	0.005274
-1.643644e+01	0.005293
-1.639640e+01	0.005313
-1.635636e+01	0.005332
-1.631632e+01	0.005352
-1.627628e+01	0.005372
-1.623624e+01	0.005391
-1.619620e+01	0.005411
-1.615616e+01	0.005431
-1.611612e+01	0.005452
-1.607608e+01	0.005472
-1.603604e+01	0.005492
-1.599600e+01	0.005513
-1.595596e+01	0.005534
-1.591592e+01	0.005554
-1.587588e+01	0.005575
-1.583584e+01	0.005596
-1.579580e+01	0.005618
-1.575576e+01	0.005639
-1.571572e+01	0.005661
-1.567568e+01	0.005682
-1.563564e+01	0.005704
-1.559560e+01	0.005726
-1.555556e+01	0.005748
-1.551552e+01	0.005770
-1.547548e+01	0.005792
-1.543544e+01	0.005815
-1.539540e+01	0.005837
-1.535536e+01	0.005860
-1.531532e+01	0.005883
-1.527528e+01	0.005906
-1.523524e+01	0.005929
-1.519520e+01	0.005953
-1.515516e+01	0.005976
-1.511512e+01	0.006000
-1.507508e+01	0.006024
-1.503504e+01	0.006048
-1.499499e+01	0.006072
-1.495495e+01	0.006096
-1.491491e+01	0.006121
-1.487487e+01	0.006145
-1.483483e+01	0.006170
-1.479479e+01	0.006195
-1.475475e+01	0.006220
-1.471471e+01	0.006246
-1.467467e+01	0.006271
-1.463463e+01	0.006297
-1.459459e+01	0.006323
-1.455455e+01	0.006349
-1.451451e+01	0.006375
-1.447447e+01	0.006401
-1.443443e+01	0.006428
-1.439439e+01	0.006454
-1.435435e+01	0.006481
-1.431431e+01	0.006508
-1.427427e+01	0.006536
-1.423423e+01	0.006563
-1.419419e+01	0.006591
-1.415415e+01	0.006619
-1.411411e+01	0.006647
-1.407407e+01	0.006675
-1.403403e+01	0.006704
-1.399399e+01	0.006732
-1.395395e+01	0.006761
-1.391391e+01	0.006790
-1.387387e+01	0.006819
-1.383383e+01	0.006849
-1.379379e+01	0.006879
-1.375375e+01	0.006909
-1.371371e+01	0.006939
-1.367367e+01	0.006969
-1.363363e+01	0.007000
-1.359359e+01	0.007031
-1.355355e+01	0.007062
-1.351351e+01	0.007093
-1.347347e+01	0.007124
-1.343343e+01	0.007156
-1.339339e+01	0.007188
-1.335335e+01	0.007220
-1.331331e+01	0.007253
-1.327327e+01	0.007285
-1.323323e+01	0.007318
-1.319319e+01	0.007351
-1.315315e+01	0.007385
-1.311311e+01	0.007419
-1.307307e+01	0.007453
-1.303303e+01	0.007487
-1.299299e+01	0.007521
-1.295295e+01	0.007556
-1.291291e+01	0.007591
-1.287287e+01	0.007626
-1.283283e+01	0.007662
-1.279279e+01	0.007698
-1.275275e+01	0.007734
-1.271271e+01	0.007770
-1.267267e+01	0.007807
-1.263263e+01	0.007844
-1.259259e+01	0.007881
-1.255255e+01	0.007918
-1.251251e+01	0.007956
-1.247247e+01	0.007994
-1.243243e+01	0.008033
-1.239239e+01	0.008072
-1.235235e+01	0.008111
-1.231231e+01	0.008150
-1.227227e+01	0.008190
-1.223223e+01	0.008230
-1.219219e+01	0.008270
-1.215215e+01	0.008311
-1.211211e+01	0.008352
-1.207207e+01	0.008393
-1.203203e+01	0.008435
-1.199199e+01	0.008477
-1.195195e+01	0.008519
-1.191191e+01	0.008562
-1.187187e+01	0.008605
-1.183183e+01	0.008649
-1.179179e+01	0.008692
-1.175175e+01	0.008737
-1.171171e+01	0.008781
-1.167167e+01	0.008826
-1.163163e+01	0.008871
-1.159159e+01	0.008917
-1.155155e+01	0.008963
-1.151151e+01	0.009010
-1.147147e+01	0.009057
-1.143143e+01	0.009104
-1.139139e+01	0.009152
-1.135135e+01	0.009200
-1.131131e+01	0.009249
-1.127127e+01	0.009298
-1.123123e+01	0.009347
-1.119119e+01	0.009397
-1.115115e+01	0.009447
-1.111111e+01	0.009498
-1.107107e+01	0.009549
-1.103103e+01	0.009601
-1.099099e+01	0.009653
-1.095095e+01	0.009706
-1.091091e+01	0.009759
-1.087087e+01	0.009812
-1.083083e+01	0.009866
-1.079079e+01	0.009921
-1.075075e+01	0.009976
-1.071071e+01	0.010032
-1.067067e+01	0.010088
-1.063063e+01	0.010144
-1.059059e+01	0.010202
-1.055055e+01	0.010259
-1.051051e+01	0.010317
-1.047047e+01	0.010376
-1.043043e+01	0.010436
-1.039039e+01	0.010496
-1.035035e+01	0.010556
-1.031031e+01	0.010617
-1.027027e+01	0.010679
-1.023023e+01	0.010741
-1.019019e+01	0.010804
-1.015015e+01	0.010867
-1.011011e+01	0.010931
-1.007007e+01	0.010996
-1.003003e+01	0.011062
-9.989990e+00	0.011128
-9.949950e+00	0.011194
-9.909910e+00	0.011262
-9.869870e+00	0.011330
-9.829830e+00	0.011398
-9.789790e+00	0.011468
-9.749750e+00	0.011538
-9.709710e+00	0.011609
-9.669670e+00	0.011680
-9.629630e+00	0.011752
-9.589590e+00	0.011825
-9.549550e+00	0.011899
-9.509510e+00	0.011974
-9.469469e+00	0.012049
-9.429429e+00	0.012125
-9.389389e+00	0.012202
-9.349349e+00	0.012280
-9.309309e+00	0.012358
-9.269269e+00	0.012438
-9.229229e+00	0.012518
-9.189189e+00	0.012599
-9.149149e+00	0.012681
-9.109109e+00	0.012764
-9.069069e+00	0.012848
-9.029029e+00	0.012933
-8.988989e+00	0.013018
-8.948949e+00	0.013105
-8.908909e+00	0.013192
-8.868869e+00	0.013281
-8.828829e+00	0.013370
-8.788789e+00	0.013461
-8.748749e+00	0.013552
-8.708709e+00	0.013645
-8.668669e+00	0.013738
-8.628629e+00	0.013833
-8.588589e+00	0.013929
-8.548549e+00	0.014026
-8.508509e+00	0.014124
-8.468468e+00	0.014223
-8.428428e+00	0.014323
-8.388388e+00	0.014425
-8.348348e+00	0.014527
-8.308308e+00	0.014631
-8.268268e+00	0.014736
-8.228228e+00	0.014843
-8.188188e+00	0.014950
-8.148148e+00	0.015059
-8.108108e+00	0.015170
-8.068068e+00	0.015281
-8.028028e+00	0.015394
-7.987988e+00	0.015509
-7.947948e+00	0.015625
-7.907908e+00	0.015742
-7.867868e+00	0.015861
-7.827828e+00	0.015981
-7.787788e+00	0.016102
-7.747748e+00	0.016226
-7.707708e+00	0.016351
-7.667668e+00	0.016477
-7.627628e+00	0.016605
-7.587588e+00	0.016735
-7.547548e+00	0.016866
-7.507508e+00	0.016999
-7.467467e+00	0.017134
-7.427427e+00	0.017271
-7.387387e+00	0.017410
-7.347347e+00	0.017550
-7.307307e+00	0.017692
-7.267267e+00	0.017836
-7.227227e+00	0.017982
-7.187187e+00	0.018130
-7.147147e+00	0.018281
-7.107107e+00	0.018433
-7.067067e+00	0.018587
-7.027027e+00	0.018744
-6.986987e+00	0.018902
-6.946947e+00	0.019063
-6.906907e+00	0.019226
-6.866867e+00	0.019392
-6.826827e+00	0.019560
-6.786787e+00	0.019730
-6.746747e+00	0.019903
-6.706707e+00	0.020078
-6.666667e+00	0.020256
-6.626627e+00	0.020436
-6.586587e+00	0.020619
-6.546547e+00	0.020805
-6.506507e+00	0.020994
-6.466466e+00	0.021185
-6.426426e+00	0.021380
-6.386386e+00	0.021577
-6.346346e+00	0.021778
-6.306306e+00	0.021981
-6.266266e+00	0.022188
-6.226226e+00	0.022398
-6.186186e+00	0.022611
-6.146146e+00	0.022827
-6.106106e+00	0.023047
-6.066066e+00	0.023271
-6.026026e+00	0.023498
-5.985986e+00	0.023729
-5.945946e+00	0.023963
-5.905906e+00	0.024202
-5.865866e+00	0.024444
-5.825826e+00	0.024691
-5.785786e+00	0.024941
-5.745746e+00	0.025196
-5.705706e+00	0.025455
-5.665666e+00	0.025718
-5.625626e+00	0.025987
-5.585586e+00	0.026259
-5.545546e+00	0.026537
-5.505506e+00	0.026819
-5.465465e+00	0.027106
-5.425425e+00	0.027399
-5.385385e+00	0.027696
-5.345345e+00	0.027999
-5.305305e+00	0.028308
-5.265265e+00	0.028622
-5.225225e+00	0.028942
-5.185185e+00	0.029268
-5.145145e+00	0.029600
-5.105105e+00	0.029938
-5.065065e+00	0.030282
-5.025025e+00	0.030633
-4.984985e+00	0.030991
-4.944945e+00	0.031356
-4.904905e+00	0.031728
-4.864865e+00	0.032107
-4.824825e+00	0.032494
-4.784785e+00	0.032889
-4.744745e+00	0.033291
-4.704705e+00	0.033701
-4.664665e+00	0.034120
-4.624625e+00	0.034548
-4.584585e+00	0.034984
-4.544545e+00	0.035430
-4.504505e+00	0.035885
-4.464464e+00	0.036349
-4.424424e+00	0.036824
-4.384384e+00	0.037309
-4.344344e+00	0.037804
-4.304304e+00	0.038310
-4.264264e+00	0.038827
-4.224224e+00	0.039356
-4.184184e+00	0.039897
-4.144144e+00	0.040450
-4.104104e+00	0.041016
-4.064064e+00	0.041594
-4.024024e+00	0.042187
-3.983984e+00	0.042793
-3.943944e+00	0.043413
-3.903904e+00	0.044048
-3.863864e+00	0.044699
-3.823824e+00	0.045365
-3.783784e+00	0.046048
-3.743744e+00	0.046747
-3.703704e+00	0.047464
-3.663664e+00	0.048199
-3.623624e+00	0.048953
-3.583584e+00	0.049726
-3.543544e+00	0.050520
-3.503504e+00	0.051333
-3.463463e+00	0.052169
-3.423423e+00	0.053027
-3.383383e+00	0.053907
-3.343343e+00	0.054812
-3.303303e+00	0.055742
-3.263263e+00	0.056697
-3.223223e+00	0.057679
-3.183183e+00	0.058689
-3.143143e+00	0.059727
-3.103103e+00	0.060796
-3.063063e+00	0.061896
-3.023023e+00	0.063028
-2.982983e+00	0.064194
-2.942943e+00	0.065395
-2.902903e+00	0.066632
-2.862863e+00	0.067907
-2.822823e+00	0.069222
-2.782783e+00	0.070578
-2.742743e+00	0.071977
-2.702703e+00	0.073421
-2.662663e+00	0.074911
-2.622623e+00	0.076451
-2.582583e+00	0.078041
-2.542543e+00	0.079684
-2.502503e+00	0.081383
-2.462462e+00	0.083140
-2.422422e+00	0.084957
-2.382382e+00	0.086838
-2.342342e+00	0.088786
-2.302302e+00	0.090803
-2.262262e+00	0.092892
-2.222222e+00	0.095058
-2.182182e+00	0.097304
-2.142142e+00	0.099634
-2.102102e+00	0.102051
-2.062062e+00	0.104561
-2.022022e+00	0.107167
-1.981982e+00	0.109875
-1.941942e+00	0.112689
-1.901902e+00	0.115615
-1.861862e+00	0.118659
-1.821822e+00	0.121826
-1.781782e+00	0.125124
-1.741742e+00	0.128557
-1.701702e+00	0.132134
-1.661662e+00	0.135862
-1.621622e+00	0.139749
-1.581582e+00	0.143802
-1.541542e+00	0.148030
-1.501502e+00	0.152443
-1.461461e+00	0.157049
-1.421421e+00	0.161858
-1.381381e+00	0.166881
-1.341341e+00	0.172128
-1.301301e+00	0.177609
-1.261261e+00	0.183337
-1.221221e+00	0.189321
-1.181181e+00	0.195575
-1.141141e+00	0.202108
-1.101101e+00	0.208934
-1.061061e+00	0.216064
-1.021021e+00	0.223507
-9.809810e-01	0.231276
-9.409409e-01	0.239380
-9.009009e-01	0.247826
-8.608609e-01	0.256623
-8.208208e-01	0.265776
-7.807808e-01	0.275287
-7.407407e-01	0.285157
-7.007007e-01	0.295382
-6.606607e-01	0.305956
-6.206206e-01	0.316867
-5.805806e-01	0.328099
-5.405405e-01	0.339629
-5.005005e-01	0.351429
-4.604605e-01	0.363463
-4.204204e-01	0.375690
-3.803804e-01	0.388061
-3.403403e-01	0.400520
-3.003003e-01	0.413004
-2.602603e-01	0.425444
-2.202202e-01	0.437769
-1.801802e-01	0.449899
-1.401401e-01	0.461758
-1.001001e-01	0.473265
-6.006006e-02	0.484344
-2.002002e-02	0.494921
2.002002e-02	0.504929
6.006006e-02	0.514307
1.001001e-01	0.523004
1.401401e-01	0.530981
1.801802e-01	0.538207
2.202202e-01	0.544664
2.602603e-01	0.550343
3.003003e-01	0.555249
3.403403e-01	0.559394
3.803804e-01	0.562798
4.204204e-01	0.565490
4.604605e-01	0.567504
5.005005e-01	0.568878
5.405405e-01	0.569654
5.805806e-01	0.569875
6.206206e-01	0.569586
6.606607e-01	0.568831
7.007007e-01	0.567653
7.407407e-01	0.566096
7.807808e-01	0.564198
8.208208e-01	0.561998
8.608609e-01	0.559532
9.009009e-01	0.556833
9.409409e-01	0.553932
9.809810e-01	0.550856
1.021021e+00	0.547633
1.061061e+00	0.544284
1.101101e+00	0.540831
1.141141e+00	0.537294
1.181181e+00	0.533688
1.221221e+00	0.530030
1.261261e+00	0.526332
1.301301e+00	0.522608
1.341341e+00	0.518866
1.381381e+00	0.515117
1.421421e+00	0.511369
1.461461e+00	0.507629
1.501502e+00	0.503904
1.541542e+00	0.500198
1.581582e+00	0.496517
1.621622e+00	0.492864
1.661662e+00	0.489243
1.701702e+00	0.485656
1.741742e+00	0.482107
1.781782e+00	0.478598
1.821822e+00	0.475129
1.861862e+00	0.471703
1.901902e+00	0.468320
1.941942e+00	0.464982
1.981982e+00	0.461688
2.022022e+00	0.458440
2.062062e+00	0.455238
2.102102e+00	0.452081
2.142142e+00	0.448970
2.182182e+00	0.445904
2.222222e+00	0.442884
2.262262e+00	0.439909
2.302302e+00	0.436979
2.342342e+00	0.434092
2.382382e+00	0.431250
2.422422e+00	0.428451
2.462462e+00	0.425694
2.502503e+00	0.422980
2.542543e+00	0.420307
2.582583e+00	0.417675
2.622623e+00	0.415083
2.662663e+00	0.412530
2.702703e+00	0.410017
2.742743e+00	0.407541
2.782783e+00	0.405103
2.822823e+00	0.402702
2.862863e+00	0.400337
2.902903e+00	0.398007
2.942943e+00	0.395712
2.982983e+00	0.393452
3.023023e+00	0.391224
3.063063e+00	0.389030
3.103103e+00	0.386867
3.143143e+00	0.384736
3.183183e+00	0.382636
3.223223e+00	0.380566
3.263263e+00	0.378526
3.303303e+00	0.376515
3.343343e+00	0.374533
3.383383e+00	0.372578
3.423423e+00	0.370651
3.463463e+00	0.368751
3.503504e+00	0.366877
3.543544e+00	0.365028
3.583584e+00	0.363205
3.623624e+00	0.361407
3.663664e+00	0.359633
3.703704e+00	0.357883
3.743744e+00	0.356156
3.783784e+00	0.354452
3.823824e+00	0.352770
3.863864e+00	0.351110
3.903904e+00	0.349472
3.943944e+00	0.347855
3.983984e+00	0.346259
4.024024e+00	0.344683
4.064064e+00	0.343127
4.104104e+00	0.341590
4.144144e+00	0.340073
4.184184e+00	0.338574
4.224224e+00	0.337094
4.264264e+00	0.335632
4.304304e+00	0.334188
4.344344e+00	0.332761
4.384384e+00	0.331351
4.424424e+00	0.329959
4.464464e+00	0.328582
4.504505e+00	0.327222
4.544545e+00	0.325877
4.584585e+00	0.324549
4.624625e+00	0.323235
4.664665e+00	0.321937
4.704705e+00	0.320653
4.744745e+00	0.319384
4.784785e+00	0.318129
4.824825e+00	0.316888
4.864865e+00	0.315661
4.904905e+00	0.314448
4.944945e+00	0.313247
4.984985e+00	0.312060
5.025025e+00	0.310886
5.065065e+00	0.309724
5.105105e+00	0.308575
5.145145e+00	0.307437
5.185185e+00	0.306312
5.225225e+00	0.305199
5.265265e+00	0.304097
5.305305e+00	0.303007
5.345345e+00	0.301928
5.385385e+00	0.300859
5.425425e+00	0.299802
5.465465e+00	0.298756
5.505506e+00	0.297719
5.545546e+00	0.296694
5.585586e+00	0.295678
5.625626e+00	0.294673
5.665666e+00	0.293677
5.705706e+00	0.292691
5.745746e+00	0.291714
5.785786e+00	0.290747
5.825826e+00	0.289790
5.865866e+00	0.288841
5.905906e+00	0.287901
5.945946e+00	0.286970
5.985986e+00	0.286048
6.026026e+00	0.285135
6.066066e+00	0.284230
6.106106e+00	0.283333
6.146146e+00	0.282444
6.186186e+00	0.281564
6.226226e+00	0.280691
6.266266e+00	0.279827
6.306306e+00	0.278970
6.346346e+00	0.278120
6.386386e+00	0.277279
6.426426e+00	0.276444
6.466466e+00	0.275617
6.506507e+00	0.274797
6.546547e+00	0.273985
6.586587e+00	0.273179
6.626627e+00	0.272380
6.666667e+00	0.271588
6.706707e+00	0.270802
6.746747e+00	0.270024
6.786787e+00	0.269251
6.826827e+00	0.268486
6.866867e+00	0.267726
6.906907e+00	0.266973
6.946947e+00	0.266226
6.986987e+00	0.265485
7.027027e+00	0.264750
7.067067e+00	0.264022
7.107107e+00	0.263299
7.147147e+00	0.262581
7.187187e+00	0.261870
7.227227e+00	0.261164
7.267267e+00	0.260464
7.307307e+00	0.259769
7.347347e+00	0.259079
7.387387e+00	0.258395
7.427427e+00	0.257717
7.467467e+00	0.257043
7.507508e+00	0.256375
7.547548e+00	0.255711
7.587588e+00	0.255053
7.627628e+00	0.254400
7.667668e+00	0.253751
7.707708e+00	0.253108
7.747748e+00	0.252469
7.787788e+00	0.251835
7.827828e+00	0.251206
7.867868e+00	0.250581
7.907908e+00	0.249961
7.947948e+00	0.249345
7.987988e+00	0.248734
8.028028e+00	0.248127
8.068068e+00	0.247525
8.108108e+00	0.246927
8.148148e+00	0.246333
8.188188e+00	0.245743
8.228228e+00	0.245158
8.268268e+00	0.244576
8.308308e+00	0.243999
8.348348e+00	0.243425
8.388388e+00	0.242856
8.428428e+00	0.242291
8.468468e+00	0.241729
8.508509e+00	0.241171
8.548549e+00	0.240617
8.588589e+00	0.240067
8.628629e+00	0.239520
8.668669e+00	0.238978
8.708709e+00	0.238438
8.748749e+00	0.237903
8.788789e+00	0.237370
8.828829e+00	0.236842
8.868869e+00	0.236317
8.908909e+00	0.235795
8.948949e+00	0.235277
8.988989e+00	0.234762
9.029029e+00	0.234250
9.069069e+00	0.233742
9.109109e+00	0.233237
9.149149e+00	0.232735
9.189189e+00	0.232236
9.229229e+00	0.231741
9.269269e+00	0.231248
9.309309e+00	0.230759
9.349349e+00	0.230273
9.389389e+00	0.229790
9.429429e+00	0.229309
9.469469e+00	0.228832
9.509510e+00	0.228358
9.549550e+00	0.227886
9.589590e+00	0.227418
9.629630e+00	0.226952
9.669670e+00	0.226489
9.709710e+00	0.226029
9.749750e+00	0.225572
9.789790e+00	0.225117
9.829830e+00	0.224665
9.869870e+00	0.224216
9.909910e+00	0.223769
9.949950e+00	0.223326
9.989990e+00	0.222884
1.003003e+01	0.222446
1.007007e+01	0.222009
1.011011e+01	0.221576
1.015015e+01	0.221145
1.019019e+01	0.220716
1.023023e+01	0.220290
1.027027e+01	0.219866
1.031031e+01	0.219445
1.035035e+01	0.219026
1.039039e+01	0.218609
1.043043e+01	0.218195
1.047047e+01	0.217783
1.051051e+01	0.217373
1.055055e+01	0.216966
1.059059e+01	0.216561
1.063063e+01	0.216158
1.067067e+01	0.215757
1.071071e+01	0.215359
1.075075e+01	0.214963
1.079079e+01	0.214569
1.083083e+01	0.214177
1.087087e+01	0.213787
1.091091e+01	0.213399
1.095095e+01	0.213014
1.099099e+01	0.212630
1.103103e+01	0.212248
1.107107e+01	0.211869
1.111111e+01	0.211491
1.115115e+01	0.211116
1.119119e+01	0.210742
1.123123e+01	0.210371
1.127127e+01	0.210001
1.131131e+01	0.209634
1.135135e+01	0.209268
1.139139e+01	0.208904
1.143143e+01	0.208542
1.147147e+01	0.208182
1.151151e+01	0.207824
1.155155e+01	0.207467
1.159159e+01	0.207112
1.163163e+01	0.206760
1.167167e+01	0.206409
1.171171e+01	0.206059
1.175175e+01	0.205712
1.179179e+01	0.205366
1.183183e+01	0.205022
1.187187e+01	0.204679
1.191191e+01	0.204339
1.195195e+01	0.204000
1.199199e+01	0.203663
1.203203e+01	0.203327
1.207207e+01	0.202993
1.211211e+01	0.202660
1.215215e+01	0.202330
1.219219e+01	0.202001
1.223223e+01	0.201673
1.227227e+01	0.201347
1.231231e+01	0.201023
1.235235e+01	0.200700
1.239239e+01	0.200378
1.243243e+01	0.200058
1.247247e+01	0.199740
1.251251e+01	0.199423
1.255255e+01	0.199108
1.259259e+01	0.198794
1.263263e+01	0.198482
1.267267e+01	0.198171
1.271271e+01	0.197862
1.275275e+01	0.197554
1.279279e+01	0.197247
1.283283e+01	0.196942
1.287287e+01	0.196638
1.291291e+01	0.196336
1.295295e+01	0.196035
1.299299e+01	0.195735
1.303303e+01	0.195437
1.307307e+01	0.195140
1.311311e+01	0.194844
1.315315e+01	0.194550
1.319319e+01	0.194257
1.323323e+01	0.193966
1.327327e+01	0.193675
1.331331e+01	0.193386
1.335335e+01	0.193099
1.339339e+01	0.192812
1.343343e+01	0.192527
1.347347e+01	0.192243
1.351351e+01	0.191960
1.355355e+01	0.191679
1.359359e+01	0.191399
1.363363e+01	0.191120
1.367367e+01	0.190842
1.371371e+01	0.190565
1.375375e+01	0.190290
1.379379e+01	0.190016
1.383383e+01	0.189743
1.387387e+01	0.189471
1.391391e+01	0.189200
1.395395e+01	0.188931
1.399399e+01	0.188662
1.403403e+01	0.188395
1.407407e+01	0.188129
1.411411e+01	0.187864
1.415415e+01	0.187600
1.419419e+01	0.187337
1.423423e+01	0.187075
1.427427e+01	0.186815
1.431431e+01	0.186555
1.435435e+01	0.186297
1.439439e+01	0.186039
1.443443e+01	0.185783
1.447447e+01	0.185527
1.451451e+01	0.185273
1.455455e+01	0.185020
1.459459e+01	0.184768
1.463463e+01	0.184517
1.467467e+01	0.184266
1.471471e+01	0.184017
1.475475e+01	0.183769
1.479479e+01	0.183522
1.483483e+01	0.183276
1.487487e+01	0.183031
1.491491e+01	0.182787
1.495495e+01	0.182543
1.499499e+01	0.182301
1.503504e+01	0.182060
1.507508e+01	0.181819
1.511512e+01	0.181580
1.515516e+01	0.181342
1.519520e+01	0.181104
1.523524e+01	0.180867
1.527528e+01	0.180632
1.531532e+01	0.180397
1.535536e+01	0.180163
1.539540e+01	0.179930
