Wavelength	Comparation
8.266667e+00	0.338094	8.261159	0.338127
8.255659e+00	0.338163	8.250166	0.338200
8.244681e+00	0.338240	8.239203	0.338281
8.233732e+00	0.338324	8.228268	0.338367
8.222812e+00	0.338412	8.217362	0.338458
8.211921e+00	0.338505	8.206486	0.338595
8.201058e+00	0.338693	8.195638	0.338800
8.190225e+00	0.338915	8.184818	0.339039
8.179420e+00	0.339171	8.174028	0.339312
8.168643e+00	0.339460	8.163265	0.339616
8.157895e+00	0.339780	8.152531	0.339952
8.147175e+00	0.340135	8.141825	0.340331
8.136483e+00	0.340539	8.131148	0.340759
8.125819e+00	0.340990	8.120498	0.341232
8.115183e+00	0.341485	8.109876	0.341750
8.104575e+00	0.342026	8.099282	0.342312
8.093995e+00	0.342608	8.088715	0.342913
8.083442e+00	0.343227	8.078176	0.343550
8.072917e+00	0.343882	8.067664	0.344223
8.062419e+00	0.344573	8.057180	0.344932
8.051948e+00	0.345300	8.046723	0.345677
8.041505e+00	0.346044	8.036293	0.346402
8.031088e+00	0.346751	8.025890	0.347091
8.020699e+00	0.347422	8.015514	0.347745
8.010336e+00	0.348059	8.005165	0.348364
8.000000e+00	0.348662	7.994842	0.348952
7.989691e+00	0.349228	7.984546	0.349491
7.979408e+00	0.349741	7.974277	0.349978
7.969152e+00	0.350204	7.964033	0.350417
7.958922e+00	0.350620	7.953817	0.350811
7.948718e+00	0.350992	7.943626	0.351163
7.938540e+00	0.351335	7.933461	0.351507
7.928389e+00	0.351682	7.923323	0.351859
7.918263e+00	0.352039	7.913210	0.352222
7.908163e+00	0.352410	7.903123	0.352604
7.898089e+00	0.352803	7.893062	0.353009
7.888041e+00	0.353195	7.883026	0.353361
7.878018e+00	0.353506	7.873016	0.353631
7.868020e+00	0.353736	7.863031	0.353822
7.858048e+00	0.353887	7.853072	0.353933
7.848101e+00	0.353959	7.843137	0.353965
7.838180e+00	0.353931	7.833228	0.353857
7.828283e+00	0.353742	7.823344	0.353587
7.818411e+00	0.353392	7.813485	0.353156
7.808564e+00	0.352880	7.803650	0.352564
7.798742e+00	0.352206	7.793840	0.351808
7.788945e+00	0.351383	7.784055	0.350931
7.779172e+00	0.350453	7.774295	0.349950
7.769424e+00	0.349424	7.764559	0.348875
7.759700e+00	0.348305	7.754847	0.347714
7.750000e+00	0.347104	7.745159	0.346476
7.740325e+00	0.345840	7.735496	0.345194
7.730673e+00	0.344539	7.725857	0.343874
7.721046e+00	0.343197	7.716241	0.342509
7.711443e+00	0.341809	7.706650	0.341096
7.701863e+00	0.340369	7.697083	0.339629
7.692308e+00	0.338900	7.687539	0.338182
7.682776e+00	0.337473	7.678019	0.336772
7.673267e+00	0.336078	7.668522	0.335389
7.663782e+00	0.334705	7.659049	0.334025
7.654321e+00	0.333347	7.649599	0.332672
7.644883e+00	0.331980	7.640173	0.331271
7.635468e+00	0.330547	7.630769	0.329806
7.626076e+00	0.329049	7.621389	0.328276
7.616708e+00	0.327486	7.612032	0.326680
7.607362e+00	0.325857	7.602698	0.325019
7.598039e+00	0.324184	7.593386	0.323355
7.588739e+00	0.322529	7.584098	0.321707
7.579462e+00	0.320889	7.574832	0.320074
7.570208e+00	0.319263	7.565589	0.318455
7.560976e+00	0.317651	7.556368	0.316848
7.551766e+00	0.316041	7.547170	0.315227
7.542579e+00	0.314406	7.537994	0.313579
7.533414e+00	0.312745	7.528840	0.311903
7.524272e+00	0.311052	7.519709	0.310194
7.515152e+00	0.309326	7.510600	0.308450
7.506053e+00	0.307585	7.501512	0.306732
7.496977e+00	0.305891	7.492447	0.305062
7.487923e+00	0.304244	7.483404	0.303438
7.478890e+00	0.302643	7.474382	0.301860
7.469880e+00	0.301088	7.465382	0.300328
7.460890e+00	0.299597	7.456404	0.298896
7.451923e+00	0.298226	7.447447	0.297585
7.442977e+00	0.296974	7.438512	0.296393
7.434053e+00	0.295843	7.429599	0.295323
7.425150e+00	0.294833	7.420706	0.294374
7.416268e+00	0.293901	7.411835	0.293414
7.407407e+00	0.292913	7.402985	0.292399
7.398568e+00	0.291871	7.394156	0.291330
7.389750e+00	0.290776	7.385348	0.290208
7.380952e+00	0.289628	7.376562	0.289035
7.372176e+00	0.288447	7.367796	0.287863
7.363420e+00	0.287284	7.359050	0.286710
7.354686e+00	0.286141	7.350326	0.285576
7.345972e+00	0.285017	7.341622	0.284464
7.337278e+00	0.283915	7.332939	0.283373
7.328605e+00	0.282838	7.324276	0.282312
7.319953e+00	0.281794	7.315634	0.281285
7.311321e+00	0.280786	7.307012	0.280295
7.302709e+00	0.279814	7.298411	0.279342
7.294118e+00	0.278880	7.289830	0.278429
7.285546e+00	0.277981	7.281268	0.277535
7.276995e+00	0.277092	7.272727	0.276651
7.268464e+00	0.276211	7.264206	0.275772
7.259953e+00	0.275334	7.255705	0.274895
7.251462e+00	0.274455	7.247224	0.274013
7.242991e+00	0.273579	7.238762	0.273152
7.234539e+00	0.272732	7.230321	0.272318
7.226107e+00	0.271909	7.221899	0.271503
7.217695e+00	0.271102	7.213496	0.270704
7.209302e+00	0.270308	7.205113	0.269915
7.200929e+00	0.269526	7.196750	0.269139
7.192575e+00	0.268756	7.188406	0.268376
7.184241e+00	0.268000	7.180081	0.267628
7.175926e+00	0.267260	7.171776	0.266896
7.167630e+00	0.266537	7.163489	0.266182
7.159353e+00	0.265823	7.155222	0.265460
7.151096e+00	0.265093	7.146974	0.264721
7.142857e+00	0.264345	7.138745	0.263964
7.134638e+00	0.263580	7.130535	0.263192
7.126437e+00	0.262799	7.122343	0.262402
7.118255e+00	0.262005	7.114171	0.261607
7.110092e+00	0.261209	7.106017	0.260812
7.101947e+00	0.260415	7.097882	0.260021
7.093822e+00	0.259629	7.089766	0.259240
7.085714e+00	0.258857	7.081668	0.258479
7.077626e+00	0.258095	7.073588	0.257707
7.069555e+00	0.257320	7.065527	0.256938
7.061503e+00	0.256568	7.057484	0.256221
7.053470e+00	0.255911	7.049460	0.255669
7.045455e+00	0.255587	7.041454	0.255726
7.037457e+00	0.255264	7.033466	0.254805
7.029478e+00	0.254352	7.025496	0.253907
7.021518e+00	0.253470	7.017544	0.253043
7.013575e+00	0.252626	7.009610	0.252220
7.005650e+00	0.251825	7.001694	0.251442
6.997743e+00	0.251060	6.993796	0.250679
6.989853e+00	0.250300	6.985915	0.249921
6.981982e+00	0.249545	6.978053	0.249171
6.974128e+00	0.248799	6.970208	0.248429
6.966292e+00	0.248062	6.962381	0.247698
6.958474e+00	0.247329	6.954571	0.246956
6.950673e+00	0.246580	6.946779	0.246200
6.942889e+00	0.245817	6.939004	0.245431
6.935123e+00	0.245044	6.931247	0.244655
6.927374e+00	0.244265	6.923506	0.243875
6.919643e+00	0.243503	6.915784	0.243149
6.911929e+00	0.242813	6.908078	0.242494
6.904232e+00	0.242194	6.900390	0.241912
6.896552e+00	0.241648	6.892718	0.241402
6.888889e+00	0.241174	6.885064	0.240964
6.881243e+00	0.240764	6.877427	0.240575
6.873614e+00	0.240398	6.869806	0.240232
6.866002e+00	0.240078	6.862203	0.239937
6.858407e+00	0.239807	6.854616	0.239690
6.850829e+00	0.239585	6.847046	0.239492
6.843267e+00	0.239402	6.839493	0.239314
6.835722e+00	0.239228	6.831956	0.239144
6.828194e+00	0.239063	6.824436	0.238983
6.820682e+00	0.238906	6.816932	0.238831
6.813187e+00	0.238757	6.809445	0.238685
6.805708e+00	0.238609	6.801975	0.238527
6.798246e+00	0.238442	6.794521	0.238352
6.790800e+00	0.238259	6.787083	0.238162
6.783370e+00	0.238063	6.779661	0.237961
6.775956e+00	0.237858	6.772256	0.237753
6.768559e+00	0.237663	6.764866	0.237587
6.761178e+00	0.237525	6.757493	0.237476
6.753813e+00	0.237438	6.750136	0.237412
6.746464e+00	0.237397	6.742795	0.237392
6.739130e+00	0.237395	6.735470	0.237408
6.731813e+00	0.237429	6.728161	0.237457
6.724512e+00	0.237492	6.720867	0.237534
6.717226e+00	0.237582	6.713590	0.237635
6.709957e+00	0.237693	6.706328	0.237757
6.702703e+00	0.237825	6.699082	0.237897
6.695464e+00	0.237963	6.691851	0.238021
6.688242e+00	0.238073	6.684636	0.238118
6.681034e+00	0.238157	6.677437	0.238189
6.673843e+00	0.238215	6.670253	0.238235
6.666667e+00	0.238248	6.663084	0.238255
6.659506e+00	0.238263	6.655931	0.238271
6.652361e+00	0.238281	6.648794	0.238292
6.645230e+00	0.238305	6.641671	0.238319
6.638116e+00	0.238336	6.634564	0.238356
6.631016e+00	0.238378	6.627472	0.238403
6.623932e+00	0.238434	6.620395	0.238469
6.616862e+00	0.238509	6.613333	0.238554
6.609808e+00	0.238602	6.606287	0.238655
6.602769e+00	0.238711	6.599255	0.238771
6.595745e+00	0.238834	6.592238	0.238901
6.588735e+00	0.238967	6.585236	0.239033
6.581741e+00	0.239099	6.578249	0.239165
6.574761e+00	0.239229	6.571277	0.239294
6.567797e+00	0.239358	6.564320	0.239421
6.560847e+00	0.239484	6.557377	0.239546
6.553911e+00	0.239608	6.550449	0.239668
6.546990e+00	0.239729	6.543536	0.239788
6.540084e+00	0.239848	6.536637	0.239906
6.533193e+00	0.239964	6.529753	0.240022
6.526316e+00	0.240079	6.522883	0.240137
6.519453e+00	0.240197	6.516027	0.240262
6.512605e+00	0.240330	6.509186	0.240401
6.505771e+00	0.240477	6.502360	0.240557
6.498952e+00	0.240642	6.495547	0.240731
6.492147e+00	0.240824	6.488749	0.240923
6.485356e+00	0.241026	6.481965	0.241134
6.478579e+00	0.241248	6.475196	0.241366
6.471816e+00	0.241489	6.468440	0.241618
6.465068e+00	0.241752	6.461699	0.241891
6.458333e+00	0.242035	6.454971	0.242185
6.451613e+00	0.242334	6.448258	0.242485
6.444906e+00	0.242635	6.441558	0.242786
6.438214e+00	0.242936	6.434873	0.243087
6.431535e+00	0.243238	6.428201	0.243388
6.424870e+00	0.243539	6.421543	0.243689
6.418219e+00	0.243842	6.414899	0.243999
6.411582e+00	0.244157	6.408269	0.244319
6.404959e+00	0.244484	6.401652	0.244651
6.398349e+00	0.244821	6.395049	0.244993
6.391753e+00	0.245169	6.388460	0.245347
6.385170e+00	0.245531	6.381884	0.245723
6.378601e+00	0.245921	6.375321	0.246126
6.372045e+00	0.246338	6.368772	0.246556
6.365503e+00	0.246780	6.362237	0.247011
6.358974e+00	0.247248	6.355715	0.247491
6.352459e+00	0.247741	6.349206	0.247997
6.345957e+00	0.248259	6.342711	0.248527
6.339468e+00	0.248801	6.336229	0.249080
6.332993e+00	0.249365	6.329760	0.249656
6.326531e+00	0.249951	6.323304	0.250252
6.320082e+00	0.250560	6.316862	0.250875
6.313646e+00	0.251198	6.310433	0.251528
6.307223e+00	0.251867	6.304016	0.252213
6.300813e+00	0.252569	6.297613	0.252933
6.294416e+00	0.253308	6.291223	0.253694
6.288032e+00	0.254091	6.284845	0.254499
6.281662e+00	0.254919	6.278481	0.255350
6.275304e+00	0.255792	6.272129	0.256245
6.268959e+00	0.256707	6.265791	0.257178
6.262626e+00	0.257658	6.259465	0.258146
6.256307e+00	0.258624	6.253152	0.259091
6.250000e+00	0.259543	6.246851	0.259978
6.243706e+00	0.260392	6.240564	0.260782
6.237425e+00	0.261146	6.234289	0.261481
6.231156e+00	0.261784	6.228026	0.262052
6.224900e+00	0.262360	6.221776	0.262710
6.218656e+00	0.263109	6.215539	0.263567
6.212425e+00	0.264098	6.209314	0.264721
6.206206e+00	0.265464	6.203102	0.266362
6.200000e+00	0.267464	6.196902	0.268834
6.193806e+00	0.270605	6.190714	0.272913
6.187625e+00	0.275923	6.184539	0.279832
6.181456e+00	0.284872	6.178376	0.291309
6.175299e+00	0.299442	6.172225	0.309591
6.169154e+00	0.322092	6.166087	0.337270
6.163022e+00	0.353699	6.159960	0.370954
6.156902e+00	0.388541	6.153846	0.405925
6.150794e+00	0.422561	6.147744	0.437917
6.144698e+00	0.451498	6.141654	0.462852
6.138614e+00	0.471585	6.135576	0.477356
6.132542e+00	0.481877	6.129511	0.485154
6.126482e+00	0.487196	6.123457	0.488010
6.120434e+00	0.487605	6.117415	0.485990
6.114398e+00	0.483172	6.111385	0.479160
6.108374e+00	0.473965	6.105367	0.467601
6.102362e+00	0.460592	6.099361	0.452940
6.096362e+00	0.444645	6.093366	0.435706
6.090373e+00	0.426124	6.087383	0.415898
6.084396e+00	0.405029	6.081412	0.393516
6.078431e+00	0.381362	6.075453	0.368572
6.072478e+00	0.355375	6.069506	0.341862
6.066536e+00	0.328126	6.063570	0.314268
6.060606e+00	0.300390	6.057645	0.286598
6.054688e+00	0.272999	6.051733	0.259698
6.048780e+00	0.246799	6.045831	0.234398
6.042885e+00	0.222133	6.039942	0.210036
6.037001e+00	0.198141	6.034063	0.186482
6.031128e+00	0.175091	6.028196	0.163999
6.025267e+00	0.153233	6.022341	0.142821
6.019417e+00	0.132787	6.016497	0.123151
6.013579e+00	0.113900	6.010664	0.105050
6.007752e+00	0.096615	6.004843	0.088607
6.001936e+00	0.081031	5.999032	0.073892
5.996132e+00	0.067192	5.993233	0.060928
5.990338e+00	0.055097	5.987446	0.049690
5.984556e+00	0.044545	5.981669	0.039675
5.978785e+00	0.035089	5.975904	0.030797
5.973025e+00	0.026810	5.970149	0.023135
5.967276e+00	0.019778	5.964406	0.016747
5.961538e+00	0.014047	5.958674	0.011681
5.955812e+00	0.009651	5.952952	0.007958
5.950096e+00	0.006606	5.947242	0.005593
5.944391e+00	0.004919	5.941543	0.004583
5.938697e+00	0.004581	5.935854	0.004910
5.933014e+00	0.005563	5.930177	0.006536
5.927342e+00	0.007820	5.924510	0.009408
5.921681e+00	0.011292	5.918854	0.013461
5.916031e+00	0.015905	5.913209	0.018615
5.910391e+00	0.021579	5.907575	0.024785
5.904762e+00	0.028222	5.901951	0.031877
5.899144e+00	0.035739	5.896339	0.039795
5.893536e+00	0.044032	5.890736	0.048438
5.887939e+00	0.053002	5.885145	0.057711
5.882353e+00	0.062552	5.879564	0.067516
5.876777e+00	0.072589	5.873993	0.077762
5.871212e+00	0.083023	5.868434	0.088363
5.865658e+00	0.093770	5.862884	0.099236
5.860113e+00	0.104750	5.857345	0.110306
5.854580e+00	0.115893	5.851817	0.121505
5.849057e+00	0.127134	5.846299	0.132772
5.843544e+00	0.138413	5.840791	0.144050
5.838041e+00	0.149679	5.835294	0.155292
5.832549e+00	0.160884	5.829807	0.166451
5.827068e+00	0.171989	5.824331	0.177493
5.821596e+00	0.182959	5.818864	0.188384
5.816135e+00	0.193763	5.813408	0.199095
5.810684e+00	0.204377	5.807963	0.209605
5.805243e+00	0.214777	5.802527	0.219892
5.799813e+00	0.224947	5.797101	0.229942
5.794393e+00	0.234874	5.791686	0.239741
5.788982e+00	0.244543	5.786281	0.249279
5.783582e+00	0.253947	5.780886	0.258547
5.778192e+00	0.263076	5.775501	0.267537
5.772812e+00	0.271928	5.770126	0.276249
5.767442e+00	0.280499	5.764761	0.284677
5.762082e+00	0.288785	5.759405	0.292822
5.756732e+00	0.296789	5.754060	0.300683
5.751391e+00	0.304504	5.748725	0.308256
5.746061e+00	0.311938	5.743400	0.315549
5.740741e+00	0.319089	5.738084	0.322559
5.735430e+00	0.325959	5.732779	0.329291
5.730129e+00	0.332556	5.727483	0.335748
5.724838e+00	0.338873	5.722197	0.341930
5.719557e+00	0.344922	5.716920	0.347848
5.714286e+00	0.350704	5.711654	0.353494
5.709024e+00	0.356220	5.706397	0.358883
5.703772e+00	0.361482	5.701149	0.364014
5.698529e+00	0.366482	5.695912	0.368888
5.693297e+00	0.371234	5.690684	0.373519
5.688073e+00	0.375739	5.685465	0.377899
5.682860e+00	0.379999	5.680257	0.382042
5.677656e+00	0.384026	5.675057	0.385947
5.672461e+00	0.387808	5.669867	0.389613
5.667276e+00	0.391362	5.664687	0.393056
5.662100e+00	0.394690	5.659516	0.396266
5.656934e+00	0.397789	5.654355	0.399258
5.651778e+00	0.400676	5.649203	0.402033
5.646630e+00	0.403336	5.644060	0.404587
5.641492e+00	0.405787	5.638927	0.406937
5.636364e+00	0.408030	5.633803	0.409068
5.631244e+00	0.410057	5.628688	0.410997
5.626134e+00	0.411889	5.623583	0.412727
5.621034e+00	0.413510	5.618487	0.414246
5.615942e+00	0.414936	5.613400	0.415580
5.610860e+00	0.416172	5.608322	0.416709
5.605787e+00	0.417201	5.603254	0.417648
5.600723e+00	0.418052	5.598194	0.418406
5.595668e+00	0.418705	5.593144	0.418961
5.590622e+00	0.419175	5.588103	0.419346
5.585586e+00	0.419471	5.583071	0.419539
5.580558e+00	0.419565	5.578048	0.419551
5.575540e+00	0.419496	5.573034	0.419398
5.570530e+00	0.419241	5.568029	0.419045
5.565530e+00	0.418809	5.563033	0.418534
5.560538e+00	0.418220	5.558046	0.417846
5.555556e+00	0.417432	5.553068	0.416981
5.550582e+00	0.416492	5.548098	0.415965
5.545617e+00	0.415383	5.543138	0.414759
5.540661e+00	0.414099	5.538187	0.413403
5.535714e+00	0.412671	5.533244	0.411887
5.530776e+00	0.411060	5.528310	0.410198
5.525847e+00	0.409301	5.523385	0.408370
5.520926e+00	0.407393	5.518469	0.406371
5.516014e+00	0.405316	5.513562	0.404227
5.511111e+00	0.403105	5.508663	0.401943
5.506217e+00	0.400734	5.503773	0.399492
5.501331e+00	0.398219	5.498891	0.396914
5.496454e+00	0.395574	5.494019	0.394186
5.491585e+00	0.392767	5.489154	0.391318
5.486726e+00	0.389838	5.484299	0.388329
5.481874e+00	0.386774	5.479452	0.385189
5.477032e+00	0.383574	5.474614	0.381932
5.472198e+00	0.380261	5.469784	0.378552
5.467372e+00	0.376812	5.464963	0.375045
5.462555e+00	0.373252	5.460150	0.371432
5.457746e+00	0.369580	5.455345	0.367697
5.452946e+00	0.365789	5.450549	0.363855
5.448155e+00	0.361898	5.445762	0.359915
5.443371e+00	0.357905	5.440983	0.355872
5.438596e+00	0.353816	5.436212	0.351737
5.433830e+00	0.349636	5.431450	0.347514
5.429072e+00	0.345370	5.426696	0.343206
5.424322e+00	0.341022	5.421950	0.338817
5.419580e+00	0.336597	5.417213	0.334360
5.414847e+00	0.332104	5.412484	0.329829
5.410122e+00	0.327538	5.407763	0.325235
5.405405e+00	0.322921	5.403050	0.320591
5.400697e+00	0.318246	5.398346	0.315886
5.395997e+00	0.313514	5.393649	0.311139
5.391304e+00	0.308751	5.388961	0.306350
5.386620e+00	0.303937	5.384281	0.301512
5.381944e+00	0.299094	5.379610	0.296667
5.377277e+00	0.294229	5.374946	0.291781
5.372617e+00	0.289325	5.370290	0.286874
5.367965e+00	0.284423	5.365643	0.281965
5.363322e+00	0.279499	5.361003	0.277027
5.358686e+00	0.274556	5.356371	0.272097
5.354059e+00	0.269632	5.351748	0.267163
5.349439e+00	0.264690	5.347132	0.262213
5.344828e+00	0.259759	5.342525	0.257304
5.340224e+00	0.254845	5.337925	0.252386
5.335628e+00	0.249925	5.333333	0.247481
5.331040e+00	0.245047	5.328749	0.242613
5.326460e+00	0.240179	5.324173	0.237747
5.321888e+00	0.235323	5.319605	0.232921
5.317324e+00	0.230521	5.315045	0.228124
5.312768e+00	0.225730	5.310493	0.223341
5.308219e+00	0.220977	5.305948	0.218621
5.303678e+00	0.216269	5.301411	0.213922
5.299145e+00	0.211582	5.296882	0.209258
5.294620e+00	0.206952	5.292360	0.204652
5.290102e+00	0.202360	5.287846	0.200075
5.285592e+00	0.197800	5.283340	0.195551
5.281090e+00	0.193309	5.278842	0.191077
5.276596e+00	0.188854	5.274351	0.186641
5.272109e+00	0.184449	5.269868	0.182270
5.267630e+00	0.180102	5.265393	0.177946
5.263158e+00	0.175801	5.260925	0.173671
5.258694e+00	0.171560	5.256465	0.169461
5.254237e+00	0.167375	5.252012	0.165302
5.249788e+00	0.163243	5.247567	0.161202
5.245347e+00	0.159176	5.243129	0.157165
5.240913e+00	0.155168	5.238699	0.153186
5.236486e+00	0.151221	5.234276	0.149272
5.232068e+00	0.147339	5.229861	0.145423
5.227656e+00	0.143523	5.225453	0.141640
5.223252e+00	0.139774	5.221053	0.137925
5.218855e+00	0.136093	5.216660	0.134280
5.214466e+00	0.132486	5.212274	0.130709
5.210084e+00	0.128949	5.207896	0.127209
5.205709e+00	0.125488	5.203525	0.123788
5.201342e+00	0.122109	5.199161	0.120446
5.196982e+00	0.118803	5.194805	0.117182
5.192630e+00	0.115583	5.190456	0.114006
5.188285e+00	0.112449	5.186115	0.110912
5.183946e+00	0.109398	5.181780	0.107907
5.179616e+00	0.106440	5.177453	0.104998
5.175292e+00	0.103574	5.173133	0.102176
5.170976e+00	0.100802	5.168820	0.099454
5.166667e+00	0.098131	5.164515	0.096833
5.162365e+00	0.095559	5.160216	0.094311
5.158070e+00	0.093090	5.155925	0.091896
5.153782e+00	0.090730	5.151641	0.089589
5.149502e+00	0.088476	5.147364	0.087390
5.145228e+00	0.086333	5.143094	0.085305
5.140962e+00	0.084306	5.138831	0.083335
5.136703e+00	0.082394	5.134576	0.081482
5.132450e+00	0.080599	5.130327	0.079747
5.128205e+00	0.078926	5.126085	0.078135
5.123967e+00	0.077374	5.121850	0.076644
5.119736e+00	0.075944	5.117623	0.075276
5.115512e+00	0.074641	5.113402	0.074038
5.111294e+00	0.073465	5.109188	0.072923
5.107084e+00	0.072411	5.104981	0.071934
5.102881e+00	0.071490	5.100782	0.071077
5.098684e+00	0.070695	5.096589	0.070343
5.094495e+00	0.070021	5.092402	0.069739
5.090312e+00	0.069487	5.088223	0.069265
5.086136e+00	0.069072	5.084051	0.068910
5.081967e+00	0.068781	5.079885	0.068688
5.077805e+00	0.068624	5.075727	0.068589
5.073650e+00	0.068582	5.071575	0.068604
5.069501e+00	0.068664	5.067430	0.068754
5.065359e+00	0.068871	5.063291	0.069016
5.061224e+00	0.069187	5.059160	0.069388
5.057096e+00	0.069625	5.055035	0.069887
5.052975e+00	0.070176	5.050916	0.070489
5.048860e+00	0.070828	5.046805	0.071198
5.044752e+00	0.071597	5.042700	0.072020
5.040650e+00	0.072466	5.038602	0.072936
5.036556e+00	0.073428	5.034511	0.073951
5.032468e+00	0.074498	5.030426	0.075066
5.028386e+00	0.075655	5.026348	0.076264
5.024311e+00	0.076895	5.022276	0.077554
5.020243e+00	0.078231	5.018211	0.078927
5.016181e+00	0.079641	5.014153	0.080373
5.012126e+00	0.081126	5.010101	0.081901
5.008078e+00	0.082691	5.006056	0.083497
5.004036e+00	0.084318	5.002017	0.085154
5.000000e+00	0.086011	4.997985	0.086883
4.995971e+00	0.087768	4.993959	0.088666
4.991948e+00	0.089576	4.989940	0.090499
4.987932e+00	0.091440	4.985927	0.092391
4.983923e+00	0.093353	4.981920	0.094325
4.979920e+00	0.095306	4.977921	0.096125
4.975923e+00	0.096954	4.973927	0.097789
4.971933e+00	0.098629	4.969940	0.099475
4.967949e+00	0.100326	4.965959	0.101185
