Wavelength(nm)	R_simulated	R_experimental
2.000000e+02	0.218384	0.310100
2.002500e+02	0.218330	0.309900
2.005000e+02	0.218356	0.311440
2.007500e+02	0.218467	0.314950
2.010000e+02	0.218669	0.316560
2.012500e+02	0.218971	0.320340
2.015000e+02	0.219378	0.323430
2.017500e+02	0.219900	0.324420
2.020000e+02	0.220544	0.326500
2.022500e+02	0.221321	0.329930
2.025000e+02	0.222241	0.334790
2.027500e+02	0.223315	0.337430
2.030000e+02	0.224556	0.336250
2.032500e+02	0.225979	0.332480
2.035000e+02	0.227600	0.326410
2.037500e+02	0.229436	0.315940
2.040000e+02	0.231508	0.300480
2.042500e+02	0.233837	0.281390
2.045000e+02	0.236451	0.258010
2.047500e+02	0.239379	0.233660
2.050000e+02	0.242657	0.212520
2.052500e+02	0.246323	0.190590
2.055000e+02	0.250426	0.173100
2.057500e+02	0.255022	0.161380
2.060000e+02	0.260181	0.156480
2.062500e+02	0.265983	0.160690
2.065000e+02	0.272535	0.172370
2.067500e+02	0.279963	0.190000
2.070000e+02	0.288437	0.213700
2.072500e+02	0.298178	0.242180
2.075000e+02	0.309489	0.273460
2.077500e+02	0.322802	0.305760
2.080000e+02	0.338768	0.339170
2.082500e+02	0.358468	0.370490
2.085000e+02	0.383987	0.401950
2.087500e+02	0.421261	0.432970
2.090000e+02	0.494754	0.463710
2.092500e+02	0.547434	0.493820
2.095000e+02	0.626341	0.521710
2.097500e+02	0.729035	0.546590
2.100000e+02	0.743997	0.572010
2.102500e+02	0.753525	0.598610
2.105000e+02	0.760262	0.622790
2.107500e+02	0.765175	0.644800
2.110000e+02	0.768753	0.663850
2.112500e+02	0.771286	0.680390
2.115000e+02	0.772964	0.699130
2.117500e+02	0.773913	0.717640
2.120000e+02	0.774225	0.732380
2.122500e+02	0.773964	0.747190
2.125000e+02	0.773181	0.757910
2.127500e+02	0.771910	0.765210
2.130000e+02	0.770177	0.773390
2.132500e+02	0.767999	0.781320
2.135000e+02	0.765391	0.786010
2.137500e+02	0.762358	0.788740
2.140000e+02	0.758905	0.791460
2.142500e+02	0.755033	0.791760
2.145000e+02	0.750735	0.791080
2.147500e+02	0.746007	0.790080
2.150000e+02	0.740838	0.787350
2.152500e+02	0.735220	0.782600
2.155000e+02	0.729136	0.777050
2.157500e+02	0.722572	0.770830
2.160000e+02	0.715508	0.761210
2.162500e+02	0.707926	0.750800
2.165000e+02	0.699802	0.738840
2.167500e+02	0.691113	0.724660
2.170000e+02	0.681833	0.711550
2.172500e+02	0.671933	0.698840
2.175000e+02	0.661384	0.684100
2.177500e+02	0.650155	0.667390
2.180000e+02	0.638215	0.648850
2.182500e+02	0.625530	0.628700
2.185000e+02	0.612065	0.608510
2.187500e+02	0.597784	0.586770
2.190000e+02	0.582654	0.563640
2.192500e+02	0.566646	0.538080
2.195000e+02	0.549727	0.510670
2.197500e+02	0.531871	0.483710
2.200000e+02	0.513056	0.457210
2.202500e+02	0.493268	0.430140
2.205000e+02	0.472505	0.402540
2.207500e+02	0.450776	0.374780
2.210000e+02	0.428107	0.347170
2.212500e+02	0.404544	0.319530
2.215000e+02	0.380161	0.292330
2.217500e+02	0.355063	0.266130
2.220000e+02	0.329387	0.241670
2.222500e+02	0.303312	0.220060
2.225000e+02	0.277065	0.199580
2.227500e+02	0.250918	0.181590
2.230000e+02	0.225194	0.166320
2.232500e+02	0.200260	0.153710
2.235000e+02	0.176520	0.143890
2.237500e+02	0.154404	0.136050
2.240000e+02	0.134351	0.132260
2.242500e+02	0.116781	0.132000
2.245000e+02	0.102081	0.134420
2.247500e+02	0.090571	0.138690
2.250000e+02	0.082483	0.146310
2.252500e+02	0.077946	0.156360
2.255000e+02	0.076981	0.168650
2.257500e+02	0.079497	0.183290
2.260000e+02	0.085307	0.199750
2.262500e+02	0.094135	0.217380
2.265000e+02	0.105649	0.235480
2.267500e+02	0.119477	0.255010
2.270000e+02	0.135231	0.276090
2.272500e+02	0.152529	0.297700
2.275000e+02	0.171009	0.319080
2.277500e+02	0.190334	0.340320
2.280000e+02	0.210210	0.361340
2.282500e+02	0.230374	0.382380
2.285000e+02	0.250610	0.403230
2.287500e+02	0.270735	0.423730
2.290000e+02	0.290604	0.443740
2.292500e+02	0.310099	0.463230
2.295000e+02	0.329131	0.482640
2.297500e+02	0.347633	0.501750
2.300000e+02	0.365555	0.520070
2.302500e+02	0.382867	0.537880
2.305000e+02	0.399548	0.555130
2.307500e+02	0.415594	0.571300
2.310000e+02	0.430998	0.587370
2.312500e+02	0.445773	0.603180
2.315000e+02	0.459921	0.617420
2.317500e+02	0.473468	0.629410
2.320000e+02	0.486411	0.641820
2.322500e+02	0.498790	0.655100
2.325000e+02	0.510631	0.666770
2.327500e+02	0.521936	0.677500
2.330000e+02	0.532738	0.688040
2.332500e+02	0.543057	0.698340
2.335000e+02	0.552913	0.708590
2.337500e+02	0.562333	0.718360
2.340000e+02	0.571331	0.726540
2.342500e+02	0.579933	0.733650
2.345000e+02	0.588152	0.740160
2.347500e+02	0.596016	0.746400
2.350000e+02	0.603534	0.753360
2.352500e+02	0.610731	0.758830
2.355000e+02	0.617612	0.762800
2.357500e+02	0.624207	0.767150
2.360000e+02	0.630515	0.770880
2.362500e+02	0.636556	0.774450
2.365000e+02	0.642346	0.778110
2.367500e+02	0.647890	0.781960
2.370000e+02	0.653200	0.786060
2.372500e+02	0.658290	0.788750
2.375000e+02	0.663166	0.790840
2.377500e+02	0.667836	0.792750
2.380000e+02	0.672321	0.794260
2.382500e+02	0.676608	0.796160
2.385000e+02	0.680698	0.797240
2.387500e+02	0.684628	0.796970
2.390000e+02	0.688383	0.797030
2.392500e+02	0.691974	0.797310
2.395000e+02	0.695404	0.797770
2.397500e+02	0.698674	0.797240
2.400000e+02	0.701794	0.795470
2.402500e+02	0.704762	0.793830
2.405000e+02	0.707587	0.791890
2.407500e+02	0.710266	0.789450
2.410000e+02	0.712806	0.788080
2.412500e+02	0.715207	0.786580
2.415000e+02	0.717475	0.784070
2.417500e+02	0.719608	0.781000
2.420000e+02	0.721608	0.777150
2.422500e+02	0.723478	0.773480
2.425000e+02	0.725220	0.770290
2.427500e+02	0.726835	0.767270
2.430000e+02	0.728323	0.763710
2.432500e+02	0.729687	0.759630
2.435000e+02	0.730926	0.755520
2.437500e+02	0.732043	0.751370
2.440000e+02	0.733037	0.746810
2.442500e+02	0.733911	0.742130
2.445000e+02	0.734663	0.737570
2.447500e+02	0.735292	0.732730
2.450000e+02	0.735806	0.727110
2.452500e+02	0.736199	0.721340
2.455000e+02	0.736472	0.715610
2.457500e+02	0.736630	0.710140
2.460000e+02	0.736667	0.704730
2.462500e+02	0.736585	0.698780
2.465000e+02	0.736385	0.692390
2.467500e+02	0.736065	0.685660
2.470000e+02	0.735628	0.678610
2.472500e+02	0.735070	0.671700
2.475000e+02	0.734394	0.665250
2.477500e+02	0.733598	0.657940
2.480000e+02	0.732681	0.650130
2.482500e+02	0.731642	0.642550
2.485000e+02	0.730480	0.634830
2.487500e+02	0.729196	0.627070
2.490000e+02	0.727788	0.618950
2.492500e+02	0.726253	0.610780
2.495000e+02	0.724590	0.602760
2.497500e+02	0.722800	0.594450
2.500000e+02	0.720879	0.585880
2.502500e+02	0.718827	0.577030
2.505000e+02	0.716640	0.567940
2.507500e+02	0.714317	0.558760
2.510000e+02	0.711856	0.549240
2.512500e+02	0.709253	0.539690
2.515000e+02	0.706508	0.530570
2.517500e+02	0.703615	0.521420
2.520000e+02	0.700573	0.512080
2.522500e+02	0.697379	0.502620
2.525000e+02	0.694028	0.492830
2.527500e+02	0.690518	0.482920
2.530000e+02	0.686844	0.473080
2.532500e+02	0.683003	0.463310
2.535000e+02	0.678991	0.453460
2.537500e+02	0.674802	0.443350
2.540000e+02	0.670432	0.433230
2.542500e+02	0.665876	0.422990
2.545000e+02	0.661130	0.412740
2.547500e+02	0.656189	0.402500
2.550000e+02	0.651046	0.392210
2.552500e+02	0.645694	0.381830
2.555000e+02	0.640129	0.371280
2.557500e+02	0.634344	0.360710
2.560000e+02	0.628332	0.350200
2.562500e+02	0.622087	0.339580
2.565000e+02	0.615601	0.328830
2.567500e+02	0.608867	0.318220
2.570000e+02	0.601879	0.307720
2.572500e+02	0.594627	0.297230
2.575000e+02	0.587105	0.286900
2.577500e+02	0.579305	0.276700
2.580000e+02	0.571217	0.266520
2.582500e+02	0.562836	0.256450
2.585000e+02	0.554151	0.246610
2.587500e+02	0.545157	0.236950
2.590000e+02	0.535844	0.227590
2.592500e+02	0.526207	0.218430
2.595000e+02	0.516237	0.209600
2.597500e+02	0.505929	0.201360
2.600000e+02	0.495277	0.193440
2.602500e+02	0.484275	0.185800
2.605000e+02	0.472921	0.178530
2.607500e+02	0.461211	0.171720
2.610000e+02	0.449147	0.165450
2.612500e+02	0.436731	0.159250
2.615000e+02	0.423964	0.153360
2.617500e+02	0.410854	0.148360
2.620000e+02	0.397413	0.143640
2.622500e+02	0.383656	0.139220
2.625000e+02	0.369602	0.135450
2.627500e+02	0.355273	0.132290
2.630000e+02	0.340700	0.129620
2.632500e+02	0.325920	0.127570
2.635000e+02	0.310974	0.126040
2.637500e+02	0.295915	0.124990
2.640000e+02	0.280804	0.124150
2.642500e+02	0.265708	0.123990
2.645000e+02	0.250706	0.124720
2.647500e+02	0.235883	0.125760
2.650000e+02	0.221335	0.127260
2.652500e+02	0.207163	0.129280
2.655000e+02	0.193478	0.131370
2.657500e+02	0.180398	0.133910
2.660000e+02	0.168042	0.137290
2.662500e+02	0.156535	0.141110
2.665000e+02	0.145996	0.145150
2.667500e+02	0.136543	0.149430
2.670000e+02	0.128285	0.153820
2.672500e+02	0.121319	0.158790
2.675000e+02	0.115732	0.164010
2.677500e+02	0.111590	0.169070
2.680000e+02	0.108941	0.174410
2.682500e+02	0.107814	0.180110
2.685000e+02	0.108212	0.185750
2.687500e+02	0.110118	0.191320
2.690000e+02	0.113493	0.197090
2.692500e+02	0.118277	0.202800
2.695000e+02	0.124395	0.208650
2.697500e+02	0.131756	0.214850
2.700000e+02	0.140256	0.221200
2.702500e+02	0.149785	0.227600
2.705000e+02	0.160224	0.233820
2.707500e+02	0.171455	0.239750
2.710000e+02	0.183359	0.245730
2.712500e+02	0.195823	0.251680
2.715000e+02	0.208737	0.257400
2.717500e+02	0.221997	0.263110
2.720000e+02	0.235506	0.268940
2.722500e+02	0.249178	0.274890
2.725000e+02	0.262930	0.280700
2.727500e+02	0.276694	0.286250
2.730000e+02	0.290408	0.291490
2.732500e+02	0.304018	0.296610
2.735000e+02	0.317481	0.301570
2.737500e+02	0.330753	0.306700
2.740000e+02	0.343801	0.312020
2.742500e+02	0.356599	0.316970
2.745000e+02	0.369125	0.321480
2.747500e+02	0.381365	0.325720
2.750000e+02	0.393303	0.329870
2.752500e+02	0.404932	0.334150
2.755000e+02	0.416246	0.338330
2.757500e+02	0.427239	0.342120
2.760000e+02	0.437911	0.345620
2.762500e+02	0.448264	0.348970
2.765000e+02	0.458300	0.352360
2.767500e+02	0.468024	0.355860
2.770000e+02	0.477442	0.359190
2.772500e+02	0.486557	0.362220
2.775000e+02	0.495378	0.365060
2.777500e+02	0.503913	0.367820
2.780000e+02	0.512168	0.370420
2.782500e+02	0.520153	0.373020
2.785000e+02	0.527873	0.375660
2.787500e+02	0.535339	0.378140
2.790000e+02	0.542560	0.380510
2.792500e+02	0.549540	0.382700
2.795000e+02	0.556291	0.384610
2.797500e+02	0.562818	0.386650
2.800000e+02	0.569127	0.388860
2.802500e+02	0.575227	0.390940
2.805000e+02	0.581124	0.392790
2.807500e+02	0.586822	0.394530
2.810000e+02	0.592327	0.396160
2.812500e+02	0.597644	0.397680
2.815000e+02	0.602776	0.398760
2.817500e+02	0.607729	0.399340
2.820000e+02	0.612504	0.399780
2.822500e+02	0.617104	0.400560
2.825000e+02	0.621535	0.401680
2.827500e+02	0.625790	0.402870
2.830000e+02	0.629878	0.403870
2.832500e+02	0.633798	0.404570
2.835000e+02	0.637547	0.405090
2.837500e+02	0.641136	0.405560
2.840000e+02	0.644552	0.406000
2.842500e+02	0.647806	0.406380
2.845000e+02	0.650898	0.406750
2.847500e+02	0.653812	0.407140
2.850000e+02	0.656581	0.407320
2.852500e+02	0.659174	0.407320
2.855000e+02	0.661590	0.407300
2.857500e+02	0.663874	0.407350
2.860000e+02	0.665979	0.407550
2.862500e+02	0.667909	0.407630
2.865000e+02	0.669710	0.407590
2.867500e+02	0.671391	0.407510
2.870000e+02	0.672871	0.407310
2.872500e+02	0.674207	0.407050
2.875000e+02	0.675416	0.406710
2.877500e+02	0.676460	0.406350
2.880000e+02	0.677387	0.405870
2.882500e+02	0.678170	0.405160
2.885000e+02	0.678818	0.404330
2.887500e+02	0.679354	0.403550
2.890000e+02	0.679752	0.402760
2.892500e+02	0.680039	0.401940
2.895000e+02	0.680218	0.401020
2.897500e+02	0.680279	0.400060
2.900000e+02	0.680246	0.399140
2.902500e+02	0.680109	0.398230
2.905000e+02	0.679873	0.397200
2.907500e+02	0.679554	0.395980
2.910000e+02	0.679136	0.394780
2.912500e+02	0.678640	0.393600
2.915000e+02	0.678072	0.392390
2.917500e+02	0.677425	0.391250
2.920000e+02	0.676714	0.390220
2.922500e+02	0.675931	0.389090
2.925000e+02	0.675084	0.387830
2.927500e+02	0.674185	0.386490
2.930000e+02	0.673225	0.385250
2.932500e+02	0.672213	0.384040
2.935000e+02	0.671155	0.382710
2.937500e+02	0.670044	0.381140
2.940000e+02	0.668892	0.379390
2.942500e+02	0.667697	0.377420
2.945000e+02	0.666460	0.375350
2.947500e+02	0.665192	0.373590
2.950000e+02	0.663888	0.372250
2.952500e+02	0.662551	0.371210
2.955000e+02	0.661180	0.370200
2.957500e+02	0.659775	0.369000
2.960000e+02	0.658342	0.367650
2.962500e+02	0.656883	0.366100
2.965000e+02	0.655397	0.364290
2.967500e+02	0.653884	0.362510
2.970000e+02	0.652344	0.360920
2.972500e+02	0.650777	0.359320
2.975000e+02	0.649185	0.357590
2.977500e+02	0.647566	0.355740
2.980000e+02	0.645921	0.354060
2.982500e+02	0.644253	0.352620
2.985000e+02	0.642559	0.351120
2.987500e+02	0.640840	0.349480
2.990000e+02	0.639096	0.347740
2.992500e+02	0.637326	0.346030
2.995000e+02	0.635529	0.344380
2.997500e+02	0.633705	0.342780
3.000000e+02	0.631853	0.341360
3.002500e+02	0.629974	0.339860
3.005000e+02	0.628068	0.337990
3.007500e+02	0.626133	0.335950
3.010000e+02	0.624169	0.334000
3.012500e+02	0.622176	0.332230
3.015000e+02	0.620152	0.330400
3.017500e+02	0.618097	0.328480
3.020000e+02	0.616010	0.326590
3.022500e+02	0.613891	0.324770
3.025000e+02	0.611739	0.323050
3.027500e+02	0.609554	0.321440
3.030000e+02	0.607336	0.319970
3.032500e+02	0.605085	0.318470
3.035000e+02	0.602798	0.316780
3.037500e+02	0.600477	0.314900
3.040000e+02	0.598118	0.313020
3.042500e+02	0.595721	0.311120
3.045000e+02	0.593288	0.309050
3.047500e+02	0.590816	0.307120
3.050000e+02	0.588306	0.305450
3.052500e+02	0.585757	0.303980
3.055000e+02	0.583168	0.302510
3.057500e+02	0.580538	0.300850
3.060000e+02	0.577868	0.299070
3.062500e+02	0.575156	0.297170
3.065000e+02	0.572401	0.295360
3.067500e+02	0.569604	0.293540
3.070000e+02	0.566762	0.291640
3.072500e+02	0.563876	0.289810
3.075000e+02	0.560946	0.287970
3.077500e+02	0.557970	0.286000
3.080000e+02	0.554948	0.283950
3.082500e+02	0.551879	0.281970
3.085000e+02	0.548763	0.280080
3.087500e+02	0.545599	0.278230
3.090000e+02	0.542385	0.276100
3.092500e+02	0.539122	0.273860
3.095000e+02	0.535810	0.271740
3.097500e+02	0.532447	0.269900
3.100000e+02	0.529034	0.268150
3.102500e+02	0.525569	0.266390
3.105000e+02	0.522051	0.264480
3.107500e+02	0.518480	0.262480
3.110000e+02	0.514856	0.260370
3.112500e+02	0.511177	0.258360
3.115000e+02	0.507445	0.256490
3.117500e+02	0.503657	0.254450
3.120000e+02	0.499814	0.252360
3.122500e+02	0.495915	0.250360
3.125000e+02	0.491960	0.248260
3.127500e+02	0.487947	0.246090
3.130000e+02	0.483878	0.244040
3.132500e+02	0.479751	0.241970
3.135000e+02	0.475567	0.239870
3.137500e+02	0.471324	0.237750
3.140000e+02	0.467022	0.235680
3.142500e+02	0.462662	0.233710
3.145000e+02	0.458243	0.231650
3.147500e+02	0.453765	0.229560
3.150000e+02	0.449227	0.227450
3.152500e+02	0.444630	0.225260
3.155000e+02	0.439973	0.223170
3.157500e+02	0.435256	0.221150
3.160000e+02	0.430480	0.218840
3.162500e+02	0.425644	0.216460
3.165000e+02	0.420750	0.214270
3.167500e+02	0.415796	0.212180
3.170000e+02	0.410785	0.210040
3.172500e+02	0.405715	0.208120
3.175000e+02	0.400586	0.205990
3.177500e+02	0.395400	0.203540
3.180000e+02	0.390157	0.201330
3.182500e+02	0.384857	0.199390
3.185000e+02	0.379502	0.197380
3.187500e+02	0.374092	0.195370
3.190000e+02	0.368629	0.193210
3.192500e+02	0.363112	0.190880
3.195000e+02	0.357543	0.188730
3.197500e+02	0.351923	0.186720
3.200000e+02	0.346253	0.184710
3.202500e+02	0.340534	0.182480
3.205000e+02	0.334770	0.180070
3.207500e+02	0.328960	0.177870
3.210000e+02	0.323106	0.175750
3.212500e+02	0.317209	0.173480
3.215000e+02	0.311273	0.171440
3.217500e+02	0.305299	0.169520
3.220000e+02	0.299290	0.167630
3.222500e+02	0.293247	0.165530
3.225000e+02	0.287174	0.163310
3.227500e+02	0.281071	0.160930
3.230000e+02	0.274942	0.158500
3.232500e+02	0.268791	0.156270
3.235000e+02	0.262620	0.154270
3.237500e+02	0.256431	0.152150
3.240000e+02	0.250229	0.149830
3.242500e+02	0.244017	0.147610
3.245000e+02	0.237798	0.145530
3.247500e+02	0.231575	0.143480
3.250000e+02	0.225354	0.141070
3.252500e+02	0.219137	0.138930
3.255000e+02	0.212929	0.137010
3.257500e+02	0.206734	0.134680
3.260000e+02	0.200557	0.132510
3.262500e+02	0.194403	0.130660
3.265000e+02	0.188274	0.128500
3.267500e+02	0.182178	0.126200
3.270000e+02	0.176117	0.124070
3.272500e+02	0.170098	0.122100
3.275000e+02	0.164126	0.119970
3.277500e+02	0.158206	0.117640
3.280000e+02	0.152344	0.115540
3.282500e+02	0.146544	0.113650
3.285000e+02	0.140813	0.111590
3.287500e+02	0.135155	0.109450
3.290000e+02	0.129578	0.107460
3.292500e+02	0.124085	0.105680
3.295000e+02	0.118683	0.103770
3.297500e+02	0.113379	0.101400
3.300000e+02	0.108176	0.099490
3.302500e+02	0.103082	0.097550
3.305000e+02	0.098102	0.095390
3.307500e+02	0.093241	0.093920
3.310000e+02	0.088506	0.092500
3.312500e+02	0.083902	0.090500
3.315000e+02	0.079434	0.088680
3.317500e+02	0.075107	0.086910
3.320000e+02	0.070928	0.085130
3.322500e+02	0.066900	0.083630
3.325000e+02	0.063030	0.081970
3.327500e+02	0.059321	0.080270
3.330000e+02	0.055778	0.078540
3.332500e+02	0.052406	0.077020
3.335000e+02	0.049208	0.075440
3.337500e+02	0.046189	0.073850
3.340000e+02	0.043352	0.072170
3.342500e+02	0.040701	0.070630
3.345000e+02	0.038239	0.069130
3.347500e+02	0.035967	0.067830
3.350000e+02	0.033890	0.066410
3.352500e+02	0.032009	0.064930
3.355000e+02	0.030326	0.063570
3.357500e+02	0.028843	0.062340
3.360000e+02	0.027560	0.061110
3.362500e+02	0.026479	0.059910
3.365000e+02	0.025601	0.058790
3.367500e+02	0.024925	0.057760
3.370000e+02	0.024451	0.056500
3.372500e+02	0.024180	0.055080
3.375000e+02	0.024110	0.054130
3.377500e+02	0.024240	0.053180
3.380000e+02	0.024569	0.052030
3.382500e+02	0.025096	0.051320
3.385000e+02	0.025817	0.050510
3.387500e+02	0.026732	0.049130
3.390000e+02	0.027837	0.048470
3.392500e+02	0.029131	0.047840
3.395000e+02	0.030609	0.046860
3.397500e+02	0.032268	0.046180
3.400000e+02	0.034106	0.045560
3.402500e+02	0.036118	0.044550
3.405000e+02	0.038300	0.044210
3.407500e+02	0.040650	0.043820
3.410000e+02	0.043161	0.042960
3.412500e+02	0.045830	0.042430
3.415000e+02	0.048653	0.042220
3.417500e+02	0.051625	0.042140
3.420000e+02	0.054741	0.041660
3.422500e+02	0.057996	0.040840
3.425000e+02	0.061387	0.040900
3.427500e+02	0.064907	0.041140
3.430000e+02	0.068552	0.040280
3.432500e+02	0.072318	0.039980
3.435000e+02	0.076198	0.040550
3.437500e+02	0.080188	0.040430
3.440000e+02	0.084283	0.040240
3.442500e+02	0.088479	0.040530
3.445000e+02	0.092770	0.040440
3.447500e+02	0.097152	0.040430
3.450000e+02	0.101620	0.040920
3.452500e+02	0.106169	0.041030
3.455000e+02	0.110794	0.041040
3.457500e+02	0.115492	0.041500
3.460000e+02	0.120257	0.041970
3.462500e+02	0.125085	0.042450
3.465000e+02	0.129973	0.042840
3.467500e+02	0.134915	0.043000
3.470000e+02	0.139909	0.043330
3.472500e+02	0.144949	0.043720
3.475000e+02	0.150033	0.044300
3.477500e+02	0.155156	0.045220
3.480000e+02	0.160316	0.045930
3.482500e+02	0.165509	0.046680
3.485000e+02	0.170731	0.047560
3.487500e+02	0.175979	0.048420
3.490000e+02	0.181251	0.049370
3.492500e+02	0.186544	0.049860
3.495000e+02	0.191856	0.050440
3.497500e+02	0.197183	0.051600
3.500000e+02	0.202524	0.052850
3.502500e+02	0.207876	0.053650
3.505000e+02	0.213236	0.054480
3.507500e+02	0.218604	0.055670
3.510000e+02	0.223976	0.056880
3.512500e+02	0.229352	0.057970
3.515000e+02	0.234729	0.059360
3.517500e+02	0.240106	0.060340
3.520000e+02	0.245482	0.061170
3.522500e+02	0.250854	0.062600
3.525000e+02	0.256222	0.063980
3.527500e+02	0.261584	0.065070
3.530000e+02	0.266939	0.066060
3.532500e+02	0.272286	0.067320
3.535000e+02	0.277623	0.068860
3.537500e+02	0.282950	0.070360
3.540000e+02	0.288265	0.071920
3.542500e+02	0.293566	0.073150
3.545000e+02	0.298853	0.074090
3.547500e+02	0.304126	0.075870
3.550000e+02	0.309381	0.077510
3.552500e+02	0.314617	0.078520
3.555000e+02	0.319837	0.080090
3.557500e+02	0.325034	0.081860
3.560000e+02	0.330206	0.083270
3.562500e+02	0.335357	0.084930
3.565000e+02	0.340483	0.086280
3.567500e+02	0.345573	0.088020
3.570000e+02	0.350634	0.090110
3.572500e+02	0.355671	0.091270
3.575000e+02	0.360680	0.092280
3.577500e+02	0.365651	0.094020
3.580000e+02	0.370579	0.095950
3.582500e+02	0.375468	0.097300
3.585000e+02	0.380320	0.098940
3.587500e+02	0.385124	0.100700
3.590000e+02	0.389883	0.101970
3.592500e+02	0.394595	0.103720
3.595000e+02	0.399256	0.105540
3.597500e+02	0.403864	0.106840
3.600000e+02	0.408418	0.108320
3.602500e+02	0.412915	0.110070
3.605000e+02	0.417352	0.111370
